"Leaf_ID";"Sample_type";"NUMERO_PLANTES";"Date";"Scenario";"LMA";"908.1";"914.294";"920.489";"926.683";"932.877";"939.072";"945.266";"951.46";"957.655";"963.849";"970.044";"976.238";"982.432";"988.627";"994.821";"1001.015";"1007.21";"1013.404";"1019.598";"1025.793";"1031.987";"1038.181";"1044.376";"1050.57";"1056.764";"1062.959";"1069.153";"1075.348";"1081.542";"1087.736";"1093.931";"1100.125";"1106.319";"1112.514";"1118.708";"1124.902";"1131.097";"1137.291";"1143.485";"1149.68";"1155.874";"1162.069";"1168.263";"1174.457";"1180.652";"1186.846";"1193.04";"1199.235";"1205.429";"1211.623";"1217.818";"1224.012";"1230.206";"1236.401";"1242.595";"1248.789";"1254.984";"1261.178";"1267.373";"1273.567";"1279.761";"1285.956";"1292.15";"1298.344";"1304.539";"1310.733";"1316.927";"1323.122";"1329.316";"1335.51";"1341.705";"1347.899";"1354.094";"1360.288";"1366.482";"1372.677";"1378.871";"1385.065";"1391.26";"1397.454";"1403.648";"1409.843";"1416.037";"1422.231";"1428.426";"1434.62";"1440.814";"1447.009";"1453.203";"1459.398";"1465.592";"1471.786";"1477.981";"1484.175";"1490.369";"1496.564";"1502.758";"1508.952";"1515.147";"1521.341";"1527.535";"1533.73";"1539.924";"1546.119";"1552.313";"1558.507";"1564.702";"1570.896";"1577.09";"1583.285";"1589.479";"1595.673";"1601.868";"1608.062";"1614.256";"1620.451";"1626.645";"1632.839";"1639.034";"1645.228";"1651.423";"1657.617";"1663.811";"1670.006";"1676.2"
"5251_2022-07-06_calib";"calib";"5251";"2022-07-06";"WD2";3,90460127052117;0,726022237642088;0,751441956109383;0,774330418273871;0,799442951212009;0,820462368048267;0,837905180672491;0,851518959572887;0,858577807584968;0,862207647752651;0,86469185632156;0,867883232794082;0,870760508430187;0,874399576577665;0,877749504258296;0,881389838465965;0,884864828855771;0,888675600543284;0,892229904522152;0,895089872100334;0,898392191841127;0,901408239045969;0,903262894428947;0,9053189214939;0,907040084262485;0,908124342602681;0,908715353333514;0,909179617771495;0,909428448070179;0,909191401926297;0,908671636841783;0,90806997270661;0,907049606411231;0,90584190090227;0,904387975304657;0,902024226867248;0,898104717633819;0,890466090130893;0,876809397225801;0,86380431445332;0,852841967370324;0,84459168197548;0,840369059812527;0,838338248520104;0,837321195344195;0,836412929750358;0,835472838269815;0,835269859975838;0,835664926776927;0,836994209787912;0,838984859171511;0,841245730974011;0,843413532442957;0,845575824128008;0,847680280623597;0,849431041240511;0,850889148745047;0,851947546859664;0,852363947902944;0,85224978143278;0,851480057225753;0,849914390462603;0,847186657976883;0,843431674244286;0,838525518396604;0,832195364767907;0,824180799696091;0,814136475934941;0,802093891053709;0,788561734158444;0,774043130957635;0,759453302086749;0,745761329813425;0,7326799351649;0,718610843881233;0,700911660339478;0,675668606480628;0,638286502707462;0,5870130003167;0,526181597920608;0,465923466563105;0,415175592440239;0,377431640486643;0,351606290046358;0,334910553395108;0,324266752650058;0,317965020092653;0,314752676576008;0,313594011013014;0,313802495542211;0,315879145385632;0,320140829271564;0,326977313342865;0,336390547093615;0,347575479385955;0,35980332006312;0,372968639344019;0,38680983654805;0,400783075337428;0,41502418075824;0,429130118039811;0,442714323100117;0,456107395233808;0,469099515750521;0,48145195014438;0,493473887737521;0,504928112764361;0,515486343793244;0,52560790793379;0,535208846710406;0,543918610182019;0,552234850443698;0,560117711109162;0,567317549682895;0,57409250588197;0,580229428322608;0,585746227296349;0,590857390510125;0,595222724374114;0,598996963604211;0,602175563164094;0,604824963960969;0,606992695905024;0,608608848560591;0,609487236139973;0,609908693093692
"5253_2022-07-06_calib";"calib";"5253";"2022-07-06";"WD1";4,32901445209955;0,733778330796857;0,758023010301364;0,780781902531118;0,804281031867353;0,824825272440818;0,841751420111195;0,854876439559082;0,862322337073306;0,865670176642475;0,868118596648695;0,871071854679884;0,874328608145984;0,877759767275891;0,880760567470321;0,88447252434102;0,887805682207115;0,891391519157367;0,894753034312529;0,89749932632971;0,90073660234033;0,903486791008018;0,905276973653615;0,907248602388356;0,909012183326841;0,910170665616531;0,910883005078926;0,911381006214546;0,911529653044865;0,91137069898055;0,91098575189852;0,910553490742349;0,909722501694405;0,908607311026141;0,907121849403395;0,904926262043717;0,901209335245502;0,893831324340125;0,880796237101336;0,868438991272379;0,858138565381185;0,850095796367151;0,845687847764756;0,843473296708921;0,842246805171711;0,841061083356489;0,840052208884577;0,839605509147832;0,839901996135029;0,841301604429676;0,843419134260173;0,845983639696224;0,848492144292082;0,850913450893795;0,853102789052855;0,85503907752942;0,85667082284523;0,857780199466869;0,85832827014454;0,858298157972398;0,857654452103948;0,85622804273591;0,853683659625503;0,850151294613132;0,845614168217938;0,839755052937855;0,832190722578456;0,822632018560427;0,811186111746453;0,798273911283756;0,784383237640123;0,770332411625618;0,757077856720348;0,744344796769093;0,730603898980788;0,713312016668505;0,688788440136466;0,652326970102859;0,602199307799585;0,542288566887815;0,482589658715579;0,431964293611831;0,39407479992259;0,36789671074046;0,350850717679804;0,339973619611739;0,333418260474596;0,330036842876022;0,328772685133999;0,328914971723426;0,330945672937771;0,335232259663692;0,342037574794812;0,351480025088783;0,362659171213734;0,374918692117113;0,388031061415519;0,401883410685629;0,41578173587215;0,430027208818963;0,444088691723328;0,457630284088908;0,470991305036924;0,483975339810153;0,496281447329312;0,508289237762741;0,519677772748603;0,530149052428172;0,54020285628747;0,549693754364784;0,558348329048937;0,566678566722358;0,574538271163646;0,581703898281199;0,588489185255243;0,594672986751952;0,600124773186527;0,605294774340345;0,609697392149523;0,613473268407238;0,616683863463309;0,619376040054464;0,621476076040546;0,622984976314027;0,62352751956448;0,62355709292197
"5257_2022-07-06_calib";"calib";"5257";"2022-07-06";"WW";5,00807554262497;0,681321928420564;0,708017448733506;0,732818116998057;0,760290659345214;0,783082927150168;0,800529520367129;0,814874461976351;0,822175452458864;0,825004612236862;0,826866218975046;0,829893539731811;0,833047714888644;0,836634141280152;0,840347225485392;0,844269570340768;0,848357189011633;0,853037796592534;0,857142486423892;0,860578939382956;0,864504288958428;0,868080538956062;0,870618681432898;0,872965915617011;0,875170568235806;0,876618972373442;0,877386767586093;0,878007047743918;0,878000640374627;0,877758234482708;0,877390450622358;0,876677937306666;0,875400654387227;0,873953717046174;0,872157516067836;0,869377998137713;0,864754841273957;0,855574390587956;0,838695902413484;0,823084471015054;0,810446693759352;0,800643242389378;0,795466818455088;0,792876852208168;0,791444347908558;0,790156603626146;0,788921450066278;0,788487103233232;0,788795040851489;0,790248669734049;0,792469076100193;0,795148797831516;0,797812410004188;0,800341714579223;0,802705470890716;0,804763418788627;0,806598682644249;0,80790847450696;0,808455295685234;0,808353201515686;0,807496082126589;0,805683621028688;0,802559336153532;0,798263215645989;0,792625750772216;0,785437975283626;0,776260184388685;0,764793264860105;0,751231097080981;0,736124050709895;0,720056205924128;0,70401835593765;0,689165727993998;0,675154891677795;0,660172322489115;0,641618810989288;0,615549081207651;0,577766724440618;0,527358016282221;0,46915645418265;0,413146977382526;0,367158275249503;0,333617825843076;0,310823762229598;0,296146322823245;0,286710877493323;0,28102514732314;0,278022308062808;0,276734093744126;0,276684482695931;0,2782040294696;0,281658436089891;0,287195165176108;0,295064347775406;0,304394728451001;0,314787294638089;0,325957755616832;0,337916133605216;0,350064219595168;0,362567784658945;0,375094402271102;0,387259066177972;0,399323970044641;0,411169640117055;0,422496963107347;0,433640593788551;0,444301257448059;0,454181432204703;0,463687823733572;0,472798031336155;0,481098708506603;0,489054857067219;0,496622747712341;0,503587065900384;0,510205243702182;0,516224557474012;0,52162663431384;0,526742765944272;0,531135293808327;0,534973216808425;0,53827400340627;0,54104580864959;0,543307097631805;0,54505984702574;0,546071438970972;0,546645308461216
"5271_2022-07-21_calib";"calib";"5271";"2022-07-21";"WW";4,38843229752053;0,70219170349028;0,728888534767754;0,752945847416303;0,779811339465883;0,802900010629771;0,820485184774097;0,83473476806058;0,842554162349603;0,846188419248001;0,848593535415984;0,851409630352538;0,854186996455211;0,857618829493215;0,861172320160581;0,864612439631413;0,868373252957122;0,87258402647332;0,876125451820099;0,87979203037579;0,883201801910106;0,8858503735811;0,888199805362609;0,890233849216836;0,892360039603844;0,893698035076561;0,894405810070739;0,894768799286328;0,894894931855134;0,894838864030834;0,894333572055261;0,893311077221678;0,892479384665023;0,891146596243734;0,889262196105773;0,886754889074102;0,882616396365512;0,87414945241527;0,858239067951941;0,844043011806824;0,832408304971957;0,82338181546399;0,818306047979178;0,81567061073386;0,814128291240547;0,812759226966532;0,811454362987368;0,810787326008163;0,811066564442698;0,812728206705984;0,815036627852964;0,8175321173067;0,820344263902012;0,822865214379498;0,825050970581251;0,827146061891258;0,828826093184628;0,830084385095493;0,830753746657644;0,83063491674188;0,82983164692142;0,82831457525557;0,825391687282146;0,821284791930996;0,816039179278914;0,809361462693923;0,80082481724384;0,790062237388886;0,777203633010524;0,762700523817949;0,747169977837944;0,731508168635292;0,716959838421076;0,703060503473678;0,688162072581895;0,669767151648309;0,643682393884131;0,605303406884169;0,553014567004892;0,491532862395771;0,431226565911476;0,38085321186797;0,343479786671635;0,317696335942422;0,300802697557855;0,289868373379405;0,283065988133729;0,279364474148537;0,277745873918725;0,277520450380074;0,279030620171331;0,282740918183154;0,288752819477383;0,297360554992488;0,307749984257033;0,319188041669319;0,331560289101313;0,344515606837954;0,357727207275229;0,371238679540968;0,38466285153467;0,397712747092558;0,410682192007853;0,423255335437987;0,435258150473272;0,44694640037626;0,45813981291845;0,468495402347172;0,478521806228873;0,488049873750323;0,496744390199596;0,505121370471178;0,513081430013731;0,520406967369013;0,527321074702509;0,533713203441476;0,539398761519033;0,544735632414249;0,549392984422428;0,553545906575772;0,55724560059926;0,560297783651545;0,562720574275028;0,564532038393323;0,565514625198974;0,565969146233315
"5272_2022-07-21_calib";"calib";"5272";"2022-07-21";"WD2";3,94138374625796;0,730576950656541;0,756446032475647;0,78035735180765;0,805380966027894;0,827983587978115;0,844645282977965;0,858282541285841;0,86566431464707;0,868722639514965;0,871505503577115;0,873919383364153;0,877089267670178;0,880102154555148;0,883547568481607;0,887152903634742;0,891043471282005;0,894891296206;0,898263238448695;0,901730141210527;0,905165824903304;0,90782566878578;0,910037259056781;0,912037589492879;0,913975985953758;0,915196724720077;0,91562477434515;0,915973868010721;0,916164366105492;0,915920047029799;0,915212292929738;0,914012061803517;0,913005773585665;0,911587073275172;0,909751322818628;0,907230241720804;0,90284248568406;0,894116300347284;0,878474344072275;0,863933324654297;0,85194455354676;0,84318654783386;0,838457613099808;0,836088704154182;0,834856595163401;0,833790577556732;0,832639378932837;0,832204760278868;0,832513377692893;0,834036505775269;0,836156350405541;0,838457413710178;0,840980140931113;0,843227984818371;0,845319857189082;0,84732015398731;0,848965087327977;0,850026183827567;0,850649020640515;0,850477233821727;0,849504716025062;0,847911359282803;0,844860989792641;0,840626573151158;0,835214887702826;0,82833502623398;0,819686038174613;0,808756430284652;0,795787294309382;0,781322093827457;0,765814029218482;0,750350602170394;0,735952630051297;0,722273871599852;0,707485847846955;0,689197053729246;0,663048689507692;0,624628989441547;0,572528313723172;0,511579725355768;0,451973763123543;0,402399946686479;0,365688186171816;0,340658489009398;0,324240992095984;0,313912330796648;0,307636285035749;0,304312457373872;0,303001783439632;0,303077360836679;0,304844121087083;0,308867419773681;0,315260269234558;0,324388192223075;0,335214065997316;0,347059879207856;0,359847744769597;0,373297785329285;0,386869860056703;0,400812572098191;0,414652698588639;0,428071660630372;0,441392491145207;0,454384052522913;0,466731276643882;0,478799703613198;0,49037058763607;0,501016276162848;0,511341001805158;0,521078319724156;0,529916627728129;0,538384894906919;0,546365642887686;0,553705271520722;0,560564774219075;0,566833334971903;0,572342468449824;0,577624331272188;0,582193495249774;0,586094056049606;0,589474315675154;0,592324208636851;0,594782126785718;0,596607025878012;0,59759765391582;0,598153836205367
"5277_2022-07-21_calib";"calib";"5277";"2022-07-21";"WD1";4,77747771396738;0,693590232585882;0,722054928703927;0,748572631631363;0,776124719194998;0,801035475612232;0,819774591661008;0,834343306261753;0,842429417613463;0,84540459093315;0,847939433127475;0,850490184105036;0,854044121975424;0,857646710676196;0,861469337177187;0,865377461558741;0,869462126504614;0,873921903937754;0,878134438718225;0,882298795236269;0,885892738042347;0,889060030843566;0,89188875656634;0,894108478250372;0,89638607829905;0,897815363503741;0,898605502353416;0,899191908880843;0,899220426068607;0,898941229986739;0,89834030933084;0,897158923594852;0,895853595625621;0,894283520518959;0,892216554466458;0,889370456320919;0,884559366508154;0,874669602379169;0,856615802965359;0,840002441386837;0,826582384142316;0,816558619906294;0,811071098365651;0,808247506376961;0,806640045765759;0,805148840446497;0,803769837126581;0,803224011221244;0,803600588509948;0,805359249940983;0,807698800358292;0,810335711511217;0,813282495999159;0,81593802082924;0,818353035223065;0,820675800294007;0,822580880228688;0,823925395385879;0,824600647481835;0,82443361066151;0,823482441358809;0,821755990298844;0,818387999059351;0,81364721461976;0,807615364208761;0,799945134968096;0,790261007104601;0,778074737965703;0,763557196044758;0,747498235906652;0,730359810317639;0,713308308101545;0,697553842720483;0,682693166888148;0,666786504211945;0,647128162851428;0,619341995589741;0,579042426484545;0,52537084262216;0,463858515564138;0,405208468005003;0,357544236417171;0,322967703369386;0,29951325583299;0,284203831411933;0,27433117485652;0,26821704320903;0,264795349244548;0,263234912386779;0,262929754761082;0,264294494482959;0,267637895631731;0,27310799791287;0,281024867059296;0,290624206950749;0,30113892292099;0,312606020719869;0,32482272522029;0,337240691992888;0,350154600767571;0,363091050501114;0,375716033587837;0,3883544590602;0,400780461805169;0,412682645131959;0,424376148104325;0,435638455539001;0,446092760610151;0,456222223498404;0,465867139987592;0,474681284478606;0,483225893563416;0,491306512667854;0,498775402204172;0,505858303170451;0,51235208991434;0,518123398455449;0,523606758257233;0,528458916332097;0,532741451472794;0,536577863725597;0,539820001735336;0,54249937797198;0,544526472734557;0,545676736711503;0,546311424926255
"4524_2022-06-14_calib";"calib";"4524";"2022-06-14";"WD2";2,94259805894349;0,75101941692768;0,776357021852661;0,79993118475641;0,825927185219531;0,850417214023823;0,869483822667139;0,884627281366875;0,893336343541799;0,89770291582738;0,901646754365102;0,904525124659488;0,908374027043447;0,912273015017979;0,916216481844149;0,919927018381369;0,923661647370056;0,928021942911496;0,931299742741819;0,934382399807266;0,937880846260762;0,940267659208139;0,942509383013835;0,944565014960159;0,9463512618273;0,947297373220093;0,948048130555783;0,948710613929351;0,948526569747271;0,948220402441702;0,94771571918028;0,946793583140981;0,94565693068442;0,944175498153552;0,942650103660619;0,940352218786986;0,936431227304222;0,928754990236683;0,91482280041668;0,901766915029852;0,89071714866985;0,882557191495608;0,878447034785435;0,87643825016026;0,875621688866525;0,874849879443154;0,873971133766656;0,873845381115786;0,874361894076593;0,875756041229631;0,877652535665526;0,879820419316031;0,88207180666485;0,884107786192806;0,885994855318854;0,887842760843868;0,889408175438426;0,890404822642725;0,8906670236652;0,890541031028184;0,88982594947069;0,8882684958229;0,885425182238967;0,881581197138585;0,876702603980199;0,870343452281036;0,862406952982155;0,852303297348367;0,840287893713427;0,826869579453378;0,812419064228544;0,797997998401315;0,784681407632896;0,771695448308725;0,757676194133475;0,739896675505675;0,71434703510593;0,676401824839819;0,624193202069206;0,561872729587286;0,499949976881769;0,447704804110824;0,408590903697644;0,381804861814211;0,364364694653921;0,353329434602551;0,346721742239439;0,343415771302956;0,342146160129194;0,342334087796161;0,344487061947701;0,349151850528532;0,356450255319499;0,36666326657989;0,378646904038366;0,391696009781728;0,405727899950756;0,420326016577093;0,4351413638595;0,450078783534945;0,464916918926898;0,479277460787528;0,493352895577313;0,507073110531014;0,520167062085271;0,532827237131924;0,544850696563602;0,555929053274892;0,566487108952283;0,57642687502245;0,58552298965101;0,594100132359972;0,602141219618585;0,609496911086508;0,616435073450628;0,622625481535928;0,628206168722478;0,633419670031472;0,637937810084151;0,641853921937475;0,645213968824926;0,648124461592974;0,650491825657784;0,652314824212911;0,653525250180109;0,654390935079948
"5314_2022-06-14_calib";"calib";"5314";"2022-06-14";"WD2";3,19724596789052;0,750702283649273;0,778182366787012;0,803196362322899;0,832111578260722;0,857723504379464;0,877477913825827;0,895670034552885;0,904778269013802;0,909071260338481;0,912798114438116;0,916330010858796;0,920040780664266;0,924355145625292;0,929245550957469;0,933190917064883;0,937270992718147;0,941556006510377;0,945540624232658;0,949106072852347;0,952568505895824;0,955862014030032;0,957845451398012;0,95989437902156;0,961741337396293;0,962825866750409;0,963941085436081;0,963957275463684;0,963915583586088;0,963778384390141;0,963155761869342;0,962329872580466;0,961048999828895;0,959458537206054;0,957367883796794;0,954708543648137;0,950435012177751;0,941962899016537;0,926886151366957;0,912169485657376;0,899817445495232;0,89138943066227;0,88720625606414;0,885466179774753;0,884739639502212;0,884036288475284;0,883412443930505;0,883370137740472;0,884011763662287;0,885576098868264;0,887695505122078;0,889948810992593;0,89219918660823;0,894532455733349;0,896657194229032;0,898356464358455;0,899917579721731;0,901050855229182;0,901484203540693;0,901217541021806;0,900111530095461;0,898393724845223;0,89536743276846;0,891143551630819;0,885716858965572;0,87881122330005;0,870147924040807;0,859209289400456;0,846109475904567;0,831526709281112;0,815932800032596;0,800333957583201;0,785886303731218;0,771949350340743;0,756855538544488;0,737911252798716;0,710418544647097;0,66973329676121;0,614214635599582;0,548659633764407;0,484303349841511;0,430608243758778;0,391133761687913;0,364508570144744;0,347388454643049;0,336684765971151;0,330672953790304;0,327615542808538;0,32675075959049;0,327212003862447;0,329551189663544;0,334495006861902;0,342135377478439;0,352684458480605;0,365209344421808;0,378720789897129;0,393238806627413;0,408369980042583;0,423777539884128;0,439402060924829;0,454959122239393;0,469971556089397;0,484868595174035;0,499357173818248;0,513139549854039;0,526556812318716;0,539355217836313;0,551134367503029;0,56239516072061;0,572952817378978;0,582586805846022;0,591667120540745;0,600262728719905;0,608116542169678;0,615426036421029;0,622099340395555;0,627978216865065;0,633472655559984;0,638263523848635;0,642567056355354;0,646364154278721;0,649547167109652;0,652034784810526;0,653831847237564;0,654971641491833;0,655705112685613
"5318_2022-06-14_calib";"calib";"5318";"2022-06-14";"WW";3,53677651315323;0,700347908757575;0,729409527513949;0,757850877194989;0,789503218880376;0,817173316973908;0,838265161753514;0,85736213445077;0,866376815660222;0,87095602066755;0,874164777156113;0,877713664836685;0,882231417363237;0,886931200372232;0,892131246983593;0,896655404556393;0,901430080877932;0,906475602318975;0,911129381743994;0,91543297303051;0,919870810843397;0,92392593558577;0,926575668936763;0,928907416333029;0,931042580021301;0,9324500612338;0,933657802555876;0,933903433875381;0,933810548566986;0,933846132037385;0,933148248084326;0,932056057994441;0,930703089496391;0,92887873376394;0,926721316756727;0,923849226429899;0,918793124628904;0,908415695427563;0,889272114963553;0,871957667427658;0,858164414988087;0,848473203714305;0,843499170357108;0,841465094184906;0,840453276183092;0,839394523824243;0,838311760489955;0,838164274339693;0,83904724502688;0,840907580951061;0,843250851588411;0,845821553150488;0,848477400811056;0,851067644337888;0,853505324899139;0,855649693981537;0,857494244298707;0,858694276670635;0,859264923529734;0,8590633125645;0,85794029887057;0,85606874392186;0,85248318409441;0,847437374342505;0,841210332068963;0,833353590447932;0,823438781957331;0,810980726299609;0,796185090422379;0,779867973271973;0,762485781981949;0,745290966732249;0,729616830362989;0,71462532731368;0,698540896271069;0,678303694980847;0,64933386859554;0,607317504525161;0,551238363794154;0,487025473510062;0,426016249692816;0,376644517316635;0,341138592799587;0,317540903363605;0,302408636362685;0,29282445404125;0,287192128363967;0,284334277419586;0,283111854018795;0,283305809561439;0,2851114187006;0,289181277624556;0,295585788445325;0,30460466264457;0,315382101341763;0,327146802257104;0,339908677995467;0,353394779656063;0,367216401780532;0,381424322114772;0,395738645704235;0,409727458088337;0,423734185367159;0,437463811483647;0,450682509642525;0,463654829542909;0,476110322309071;0,487637203326964;0,498767820302342;0,50925914824553;0,518914975124659;0,528041877616535;0,536705012707324;0,544682931346017;0,552124927585687;0,558956245023658;0,565073886841922;0,570722073638105;0,575753332962403;0,580319766805611;0,584500578869347;0,588068776950518;0,590907573773901;0,592954286798113;0,594113362948653;0,594604192543359
"5319_2022-06-14_calib";"calib";"5319";"2022-06-14";"WD1";4,62610367920442;0,715986174256568;0,744508594504026;0,771070773582843;0,801346705767803;0,828735125481042;0,84924262716254;0,868347813603489;0,877821167965769;0,882982967746984;0,886726279758541;0,890098342494173;0,894439283282187;0,898882496604445;0,903485587981271;0,907546190588695;0,911948007519241;0,916731538431393;0,921049443033876;0,924703871240799;0,928819097662816;0,932310062672886;0,934708026882261;0,937218762189266;0,938929563347141;0,940239025874941;0,941617593626174;0,941688359472143;0,941750512663322;0,941862970009322;0,941427249022947;0,940411124299865;0,939213363853692;0,937736602601861;0,935876568441765;0,93317000885553;0,928605785285808;0,919546890386014;0,902391004289548;0,886629712294255;0,87390216586772;0,864376788317054;0,859184757023204;0,856573187525237;0,855169960285809;0,853808200049329;0,852461001815885;0,851968014235955;0,852254566835775;0,853985047455066;0,856766773220593;0,859796294037475;0,862785792206435;0,865546374836774;0,868162301833558;0,870329499737514;0,872225949063347;0,873508278406034;0,874130942528608;0,874002479659306;0,873077086860783;0,871425345688892;0,868274448407518;0,863855362108909;0,858239078268898;0,851120392301494;0,842116419539958;0,830770811543335;0,81714838746507;0,802004396682289;0,785726121941839;0,769568484062357;0,75462209125845;0,74015808435163;0,724586800919312;0,705306771316077;0,677955818413666;0,637861822477317;0,583613729723165;0,520164242900668;0,458330900184455;0,407042798317997;0,36919817188513;0,343568455542086;0,327057497465259;0,316452239911778;0,310299335478672;0,307116647574479;0,305836934129119;0,305931246907745;0,307799657136192;0,311955780231377;0,318526813438191;0,327795714594092;0,338932769061172;0,351069865985808;0,364135552942164;0,377835794610664;0,39185490599088;0,406147826724721;0,42040560111898;0,43421593153194;0,448040431719342;0,461393008876665;0,474278677346181;0,486771261898523;0,498804250735859;0,509865131943927;0,520535218154862;0,530581639740198;0,539863349625018;0,548629160661584;0,556980261292588;0,564708702675367;0,571894559378494;0,578471984296641;0,58436655301388;0,589822333846204;0,594625465881356;0,598957590573637;0,602808382891924;0,605974159403149;0,608369278337544;0,60995926012817;0,61077429466578;0,610973871231572
"5841_2022-07-21_calib";"calib";"5841";"2022-07-21";"WW";3,79425384331079;0,745380143194855;0,770488728772394;0,793653940452869;0,819294867813564;0,84224959750122;0,859545673050656;0,873166056199161;0,880855952478474;0,884620685834418;0,887241004572185;0,890159256122877;0,893596704981533;0,89669010463376;0,90018701796711;0,904082860532241;0,907198584937902;0,910857432347743;0,914653691928269;0,917772246996064;0,920518316258764;0,923435988951842;0,925647845842382;0,927679545564254;0,929039229026913;0,930021246605701;0,931032594799337;0,93141574716685;0,931551139814368;0,931245441534786;0,93079864331685;0,930034321591186;0,929010179314148;0,927874050348992;0,926173301259315;0,923956053768647;0,920269131300286;0,912612376330307;0,898641196134984;0,885747710999389;0,875401485778315;0,867413918995043;0,863409211934293;0,86173755691602;0,860737619086321;0,859995890730601;0,859296292802142;0,859119659297787;0,859696983090941;0,861110586400801;0,862837146411626;0,864855154412785;0,86695505576288;0,86891865718161;0,870801913411136;0,872427244895206;0,873725380794833;0,874722357555704;0,875044263017659;0,874868059883192;0,873940523782794;0,872296342370639;0,869527741044756;0,865705503934202;0,860814645171236;0,854585739257572;0,846709399931528;0,836722378578431;0,824838368278481;0,811428540266371;0,796948390487313;0,782494144857014;0,768914638276015;0,755904654105922;0,741888068271313;0,724191047227297;0,698635882576371;0,660627156782423;0,608200025916556;0,545720109373686;0,483384518188074;0,430628889865605;0,391187936541108;0,364144215631227;0,346693962193163;0,335783091905168;0,329319492420305;0,326123103431679;0,325086713109103;0,32549630730224;0,327800163084842;0,332544993684182;0,339993145446699;0,350210429838158;0,362219312094264;0,375384654468329;0,389401706965932;0,404100325799033;0,418936152397317;0,433922773245079;0,44887422732969;0,463354059401209;0,477460604553722;0,491192169671184;0,504295636690446;0,516951733664388;0,528969797049399;0,540121687452234;0,550715526400013;0,560702333596578;0,569821076708942;0,578523822391059;0,586745612994693;0,594227439623015;0,601280949532611;0,607660259409615;0,613428123865406;0,618759913175793;0,623331081371357;0,627303893057798;0,630704728763862;0,633508615637927;0,635735416485023;0,637391653250746;0,638389392764081;0,639024355384828
"5842_2022-07-06_calib";"calib";"5842";"2022-07-06";"WW";3,69239467973197;0,753788395333759;0,779659106159941;0,804506318698974;0,829643931581881;0,852728421519147;0,870257699484088;0,883781870367655;0,890976061478554;0,894888827740207;0,897550847829554;0,900658962351629;0,903783633424377;0,906727320026417;0,910391503318038;0,914379414149352;0,917839776277656;0,922140947898349;0,925604165864832;0,928508162412813;0,931798396278009;0,934640243904455;0,937014601117548;0,939167658681838;0,940730470067196;0,941745025953489;0,942579540604209;0,943310512860186;0,943353069014239;0,942985930996111;0,942423824558968;0,941674917799713;0,940492902087596;0,939117700214316;0,937406630061102;0,934899297035498;0,930972652716466;0,923323390725731;0,909476267346615;0,895236919248567;0,883177894700028;0,874602337155113;0,870054797389154;0,867909689335022;0,866637246001565;0,865423702385868;0,864325671590155;0,864117705959111;0,864700665742005;0,866127821103676;0,868141953139123;0,870605979131958;0,872931325069664;0,875092954941894;0,877176677005146;0,878963591418573;0,880424965697093;0,881573146022124;0,88201812387379;0,881908108732877;0,881026937218775;0,879303874772834;0,876533823327844;0,872497454368645;0,867268124121091;0,860680335996412;0,852314150091121;0,84174482534205;0,829170156840327;0,81507565885364;0,799965625675647;0,784746450492414;0,770581576128305;0,757042014143249;0,742340674830004;0,724057379126841;0,697930677628489;0,659225285348579;0,606320463434649;0,543711448007288;0,481911191654613;0,430199941376101;0,391764342213036;0,365407112954728;0,348114694490041;0,337135420740787;0,330372457113616;0,326822520976023;0,325277277368965;0,325280383766907;0,327168920356167;0,331487594980419;0,338314531142194;0,347897895427401;0,359286250757977;0,371701510327445;0,385193972924137;0,399348298104389;0,413722310869768;0,42841082510492;0,442991887150043;0,457224296016662;0,471238965905289;0,48490879566755;0,497974151055733;0,510691755307243;0,522818399036135;0,533989942845761;0,544807846404902;0,554969244630117;0,564327718122369;0,573242772700107;0,581723619653834;0,589416494487243;0,596691482940071;0,60328515942999;0,609166123423953;0,614711828573607;0,61952709999452;0,62360943363359;0,627172826757495;0,630220651798048;0,63269812484155;0,634533607248234;0,635397151710083;0,635568879606865
"5842_2022-07-26_calib";"calib";"5842";"2022-07-26";"WW";3,8777217690212;0,692029358970247;0,714676770066335;0,737341765669215;0,760605706131421;0,78329316857936;0,799665388299608;0,81399292194099;0,821435161715258;0,826118512099218;0,82808826756939;0,830432719005726;0,83329782003173;0,836114255653572;0,838912557623798;0,84193240042901;0,845229579271549;0,848731351942672;0,851880646428736;0,854731699853292;0,857606473999666;0,859929191072548;0,86198115434296;0,863825734519881;0,865618849747699;0,866670333558196;0,867533007632745;0,86828800606065;0,868979714879858;0,868957500949793;0,868847656331397;0,868560908081425;0,86811024948448;0,867382024641467;0,866514535796894;0,865345981590078;0,862550348520156;0,857271778042811;0,848853760445089;0,837978890968332;0,827199832869264;0,818871090384857;0,813900447670608;0,811031529961751;0,809242207814864;0,807633481187203;0,805814863147149;0,804930956954316;0,805018396062326;0,806142145765093;0,808069630253773;0,810558529000866;0,813346511941461;0,815747108331575;0,817920384993611;0,819794113826132;0,821254599821525;0,82242862787217;0,823175745716467;0,823292484432902;0,822976764292406;0,822018963729525;0,820387860321374;0,817826991203814;0,814382451034661;0,809755859457408;0,803513876903285;0,79564335166081;0,786027551869006;0,775027313817494;0,763126293557453;0,750929118755051;0,739194391042983;0,727850238897788;0,715777360947094;0,70109694620846;0,680562332283704;0,650121925833655;0,607261984630305;0,554284106628324;0,499391822321281;0,450689314932322;0,412445115292319;0,38481155803278;0,365825054484552;0,353313477964093;0,345408532245989;0,340948576806864;0,339031478759929;0,338671460298076;0,340193529230275;0,34407803668219;0,350182762220288;0,358559511259618;0,3684965426087;0,379436842858608;0,391076385606185;0,40333819746119;0,415519024234064;0,427849430985115;0,439801214940414;0,451138630489978;0,462045401168684;0,472495200163374;0,48225545211397;0,491642349916593;0,500607656713242;0,508762203394915;0,516819906163041;0,524537674750489;0,53174570211386;0,538919855820553;0,546064219217807;0,552927783882446;0,559715904191926;0,566096982663071;0,571944663309541;0,577517502035117;0,58253087865112;0,586908932265647;0,590852433552728;0,594061271528666;0,59661333788419;0,598669672269103;0,599994772107798;0,600793711415092
"5843_2022-07-06_calib";"calib";"5843";"2022-07-06";"WD1";3,63580625552152;0,712162588208638;0,737192852875913;0,761605944634303;0,787676570914111;0,81042755177057;0,828212290919975;0,841911749483002;0,849423335833716;0,853130890757948;0,855578031997836;0,858603609430019;0,861704317310362;0,864781360187154;0,868303444594964;0,872553152274588;0,876461423805259;0,8804153806201;0,884285462834839;0,887728920702542;0,891168692180777;0,894108793171209;0,896698979861894;0,898762567817127;0,900491525851301;0,902160489794085;0,902736448839163;0,90313119201132;0,903380575177772;0,903303251960588;0,902794893699782;0,902017711809943;0,900982597298117;0,899702122647604;0,8980536319819;0,895730498370232;0,891618678351273;0,883177606793989;0,867867535935256;0,853603931712358;0,841851643762934;0,833338038492528;0,828955603246768;0,827034670372369;0,825987305281399;0,824932999804383;0,823899388844574;0,823662180342944;0,824077642044739;0,825626150427684;0,827864553099185;0,830142209444423;0,832503374249941;0,83484995957541;0,83700001430081;0,838848971977691;0,840383701320031;0,841603062498823;0,842050839213257;0,841926392320651;0,841032836896582;0,839334940872683;0,836432633592539;0,832232985692338;0,82692942314667;0,820223335419551;0,811610894645044;0,800856201743402;0,788092639048177;0,77367228065289;0,75830544340718;0,74311555475913;0,728937592727787;0,715362610935861;0,700733873591291;0,682496931504032;0,656476303465528;0,618169158558084;0,566388291119726;0,505939051415487;0,446950281262239;0,398146956646681;0,362381806474426;0,338090821541542;0,322338817474165;0,312390141581467;0,306378525416452;0,303298244311699;0,302023824350841;0,302120210492588;0,303892249382773;0,307910925001818;0,314211966628824;0,323102560744461;0,33363954647412;0,345225478344252;0,357781336558902;0,370910946877549;0,38436492844202;0,398064463389461;0,411739126224285;0,42499991565086;0,438095059471609;0,450902475029866;0,463147834374428;0,475092727189571;0,486527130228787;0,49702104204372;0,507208707051756;0,516784857114456;0,525612042249994;0,533955911497784;0,541875801083133;0,54910538168535;0,555923119017053;0,562128485869722;0,56764634181322;0,572848211636807;0,577332743855933;0,58115548713084;0,584535846466652;0,587332823974777;0,589706535649611;0,591444234131529;0,59225408666055;0,592493571770446
"5843_2022-07-26_calib";"calib";"5843";"2022-07-26";"WD1";3,98948390683684;0,722639926753787;0,747258663562924;0,772052898319608;0,797487086222879;0,8214399368079;0,839590140556017;0,854326901714686;0,862664324287261;0,866568672813872;0,869153518442027;0,872151897452031;0,875334609139698;0,878968696639036;0,882345053272216;0,886112735206547;0,889987869418056;0,893736427440159;0,897228248355572;0,900650678992361;0,903974929576826;0,90642084194513;0,908704869175718;0,910834840973126;0,912615010272752;0,913680574411029;0,914845131531158;0,915506087421925;0,915648782648887;0,915651943354061;0,915104507083586;0,914247078048551;0,913438208254396;0,912031457762093;0,9106336593488;0,908815394481023;0,905105315768837;0,898467779994152;0,887824197983793;0,874232572416112;0,861248111115496;0,852189473047674;0,847383936014701;0,845000139872716;0,84374594069024;0,842631192092612;0,841409896130316;0,841054552312079;0,841492631240983;0,842913117200553;0,844624157332278;0,846894118901611;0,849427308259289;0,851578020310566;0,853600061789805;0,855436115338174;0,856962239300063;0,858138766567728;0,858766703766763;0,858726008364738;0,857915077912236;0,856353903510559;0,853947586540811;0,850348010353564;0,845646729564107;0,839480644436453;0,831432244490304;0,821609413429622;0,809789332977723;0,796416093627496;0,782234736585077;0,767973210852648;0,754400252905941;0,741287661592694;0,727253137753651;0,70985891401679;0,684921450995873;0,647953970611579;0,596972574738833;0,536012826141913;0,475310482279869;0,42390054606206;0,385430839107275;0,358852089368436;0,341321093613059;0,330262734483989;0,323482538340556;0,319920182558708;0,318558583178757;0,318657721011547;0,320610915417554;0,325150158869315;0,332115248729902;0,341569554428153;0,352493128461403;0,364641184218976;0,377620539783531;0,391371956156086;0,405203535766946;0,419392161725978;0,433418762587486;0,446879763453098;0,460173297506149;0,473037741695688;0,485214091626368;0,497142191036525;0,50839672053712;0,518734187718667;0,528762251851605;0,538148783667926;0,546785998301222;0,555012133481684;0,562849193885213;0,570194769158272;0,577110804427921;0,583450394107588;0,589139924946397;0,594468708269882;0,599177566468334;0,603254963448567;0,606769932949032;0,609633773451637;0,611886027359769;0,61359259501063;0,61453708223469;0,614978507471684
"5845_2022-07-21_calib";"calib";"5845";"2022-07-21";"WD1";4,71523044733589;0,750969243204253;0,7799224796602;0,808142363701382;0,837941680224754;0,864074053312897;0,884117394128015;0,900767167774882;0,909682338458052;0,913218323747996;0,916748395271199;0,919666974034251;0,923214637641606;0,927022152548909;0,93122209008792;0,935593349109076;0,939567902356207;0,944173263687544;0,948385667116732;0,951979659923246;0,955539705537461;0,958673410592788;0,961103209151363;0,963505279643641;0,964962402218749;0,966262780909049;0,967201316691985;0,967677518071658;0,967731951443625;0,967176583679878;0,966370332861524;0,965227189353046;0,963910181974859;0,962384035697898;0,960080407336364;0,957163503333011;0,95252787483922;0,94370860351412;0,928191769923598;0,91177641413615;0,897890655986158;0,887745857869682;0,882754185877109;0,880641865073048;0,879371970192819;0,878401216620317;0,877460231970116;0,877134641461419;0,877668516976719;0,879426863351964;0,881567675866889;0,884023162657477;0,886663160120739;0,889062686424849;0,891332313993086;0,893324133656973;0,894940806232613;0,896032608702775;0,896462985496555;0,896298662146876;0,895254898237527;0,893244246179136;0,889959309974202;0,885512604645746;0,879612734077843;0,872109388138402;0,862625871568215;0,850669753196683;0,836558320189536;0,820578834085758;0,803552220411205;0,786583040250833;0,770723658080159;0,755646905797713;0,739552671548467;0,719458949141398;0,690874707113123;0,648874688878971;0,592089161340018;0,525779599297228;0,461013139495657;0,407306605879151;0,367742006831817;0,341097123920851;0,32398168069775;0,31332408228029;0,307078540407886;0,303982478315247;0,302946408524744;0,30331786258054;0,305394135734751;0,309841824408292;0,316796085088107;0,326484840671638;0,337959510572817;0,350516819612895;0,364049024416809;0,378308818498755;0,392753846691346;0,407551245192649;0,422276031657776;0,436582458196993;0,450733500213173;0,464453270510834;0,477649780628829;0,490499184475658;0,502800044255397;0,514150017239024;0,525090332729915;0,53541678479909;0,544886838955803;0,55398456267212;0,562611121276233;0,570582373144056;0,578092112126087;0,585012783919782;0,591185515889493;0,596948584878003;0,601953903089383;0,606293350858085;0,610032990997516;0,613008136873121;0,615370273381377;0,617120844081096;0,618215448792626;0,61893691411904
"5846_2022-07-06_calib";"calib";"5846";"2022-07-06";"WD2";3,32456992236404;0,757611633619071;0,782460153486867;0,806140006916961;0,831170985466967;0,852704048021202;0,869760359546227;0,882158076653607;0,889547104219967;0,892951626957061;0,895784266991892;0,898771930013155;0,901724974697238;0,904724584237845;0,908590180194273;0,911956510717764;0,91528117955283;0,919165062113607;0,922363342084145;0,925379928343327;0,928319278008816;0,931114428499135;0,933505720127288;0,935257634353445;0,93682744053323;0,938020856667872;0,938952599425873;0,939277129831819;0,939505689447111;0,939339865196714;0,938709509761664;0,937857745867961;0,936791340740408;0,935595557070574;0,934065725449909;0,931787124211202;0,927935505939825;0,920573522059412;0,907411854691705;0,893976932936691;0,882823188730412;0,874707607850399;0,870597932614032;0,868672106187807;0,86766086018329;0,866726248064531;0,865803691172615;0,865545255495614;0,866059166645528;0,867569245772758;0,869355745698171;0,87161250373421;0,873921028945106;0,876072007792621;0,878018575948313;0,879772924008704;0,881225283907497;0,882230726927225;0,882668709080634;0,882589304055582;0,881789720909168;0,880254018841389;0,877688554578866;0,873886638637229;0,869092259428129;0,862858767589815;0,854919682929782;0,845033814752101;0,833157118981775;0,819901337595743;0,805666663636853;0,79138934047863;0,778055263938379;0,765158058900234;0,751325918793587;0,734023695764878;0,70917004898009;0,672246159395555;0,621280561373115;0,560541092878503;0,500034540876545;0,448738092804295;0,410392085564033;0,383842982388746;0,366404551275188;0,35526400502351;0,348508031467267;0,344980132450258;0,343616611860465;0,343736242843985;0,345767338584336;0,350295132943891;0,357360952186639;0,367184911601296;0,378799258298466;0,391452447646237;0,405048881243103;0,419295686535545;0,43365036061383;0,448314205309606;0,462715158440609;0,476631631083283;0,490369255953597;0,503794701997698;0,516409180374584;0,528759000156375;0,540485665515221;0,551305266945321;0,561701712856921;0,571486023331929;0,58050623158955;0,589094081409174;0,597185425197479;0,604592839424009;0,611612206331738;0,617999907895237;0,623659086059705;0,628968138864046;0,633567419941656;0,637605433332815;0,641175242843158;0,644173305041697;0,64661921913947;0,648410360693197;0,649186525647655;0,649347051667667
"5846_2022-07-26_calib";"calib";"5846";"2022-07-26";"WD2";3,98099564320528;0,730285525933976;0,756870606251563;0,782271990252557;0,809743748733731;0,83424603594461;0,854027643038216;0,869143600600694;0,877923296707647;0,88234788697523;0,885242307269325;0,88845225703152;0,891958679848079;0,896088372898842;0,899798975445453;0,903752782317543;0,907615687101447;0,911316782759406;0,915241749558265;0,918743188054332;0,92230493796293;0,92497886058858;0,927106012642086;0,929420711257758;0,931389334077364;0,932441182919619;0,933421244328633;0,933950753446165;0,93430456685091;0,934173451026487;0,93352736835295;0,932736785209233;0,931809023311334;0,930262733072815;0,928751030258063;0,926695367902279;0,922733123038474;0,915816822995027;0,90463190106883;0,890277298330724;0,876765853021896;0,867125539318059;0,861985892843283;0,859427641241467;0,858078361603476;0,85690972463557;0,855499080744524;0,854978388884942;0,855279294099125;0,856769384583733;0,858862349901816;0,861424134337042;0,864167987542243;0,86652375456742;0,868730031985458;0,870730197533239;0,872427972411263;0,873594000774406;0,874237235122813;0,874276041524067;0,873496828625864;0,871817551374863;0,86930336595154;0,865518860029117;0,860616900558336;0,854184103825025;0,84583436989386;0,835532904480471;0,823263937702674;0,809494088158665;0,79487053615258;0,780167626722114;0,766229394548078;0,752773046654219;0,738390304569482;0,720583202715617;0,695103638828685;0,657426593924814;0,60559132004131;0,543970379810032;0,482880633366218;0,431310763020425;0,392762172481016;0,366135712018441;0,34865038424661;0,337572142701397;0,330838205817514;0,327183760714081;0,325716623552517;0,32564038289523;0,327433844087426;0,331855574469288;0,338647033921407;0,347880697049354;0,358742651820455;0,370716445360198;0,383578715029061;0,397228110602388;0,411018692899658;0,425163905801204;0,439156970278775;0,452617870610955;0,465920246851918;0,478878715352834;0,491157805301233;0,503179394376859;0,514610413806434;0,525073210832928;0,535229965380697;0,544815678052046;0,553557532828551;0,561849628538041;0,569828303574016;0,577154434299313;0,584064438922451;0,590380721250791;0,595979737865248;0,601210407165996;0,605866703348328;0,609929076942888;0,61341668646956;0,616253522827525;0,618503060745813;0,620143046201404;0,620935726298434;0,621164192644016
"5848_2022-07-21_calib";"calib";"5848";"2022-07-21";"WD2";4,72088928975693;0,727499329541895;0,755060098327249;0,780889752607925;0,809350304542609;0,834261648153311;0,853251144935631;0,868612475597844;0,877263643365644;0,880660995355581;0,883412830937194;0,886864899514259;0,890014406688922;0,893631427628354;0,897586297412652;0,901878233675994;0,905703102113076;0,909856013037637;0,91401331294621;0,917538600560221;0,920693062308901;0,92390111096593;0,926446003204006;0,928725548603405;0,930411095501627;0,931711663493326;0,932778300013827;0,933214440026186;0,933320347778716;0,933075791487551;0,932438829500106;0,931387559676294;0,930379824922148;0,929134421815774;0,927198629051905;0,924776447786468;0,920531079223164;0,911768206557804;0,895970713911521;0,881033413680998;0,868722709636152;0,859252467134787;0,854308032881135;0,851910378939116;0,850309434999682;0,849163763534852;0,848028777810029;0,847391751073423;0,847790051793106;0,849603923130134;0,851939789240501;0,854529819706262;0,857227791202722;0,859685941235955;0,862070444581652;0,864077965597622;0,865667368649909;0,866861435114219;0,867431656446589;0,867348626217963;0,866489035451726;0,864759630267765;0,861725953765894;0,857575718798065;0,852094277482807;0,845146616219927;0,836421057815036;0,825249563849042;0,8120227358443;0,797200513369482;0,781330816223558;0,765543925006758;0,750801086862169;0,736706191434305;0,721651418865891;0,702906734035492;0,676207374879584;0,637182674454221;0,584248954152301;0,52226107257513;0,461512570295181;0,410820569491833;0,37323733926729;0,347659294896373;0,331056447028414;0,320520526481393;0,31422782391374;0,310884715934963;0,309541026320464;0,309654196746122;0,311476471543199;0,315501067348825;0,321964204452783;0,331102004858451;0,3418843761138;0,353819284467186;0,366560969463794;0,380011547360368;0,393668585973743;0,407653419558756;0,421529095228655;0,435065435543611;0,448401443349447;0,461403641415005;0,473838278811198;0,485906739393831;0,497503014678563;0,508189306814076;0,518502635928135;0,528272221557964;0,537224691681243;0,54582392455863;0,554007631040301;0,561508040306436;0,568568618946113;0,575043772145676;0,580855149909718;0,586255704981397;0,590936527093111;0,595094216916504;0,598750984258474;0,60181020777318;0,604313013700005;0,606107724083006;0,607018849140656;0,607264097236765
"4625_2022-07-26_calib";"calib";"4625";"2022-07-26";"WD1";3,47169982531121;0,776205415548517;0,801561983688912;0,825218624754188;0,850352918633241;0,87307684805194;0,889606472223614;0,903932803336611;0,913543456830869;0,917025608903776;0,920437608258725;0,923548428452038;0,926421692849507;0,929607793852755;0,933496126911306;0,93710620334701;0,940531934832559;0,944306166392141;0,947597689006952;0,950559666467447;0,953353550667354;0,95583903128732;0,957982397637233;0,959901512853956;0,961289521204758;0,962250591128201;0,963047562815176;0,963357872587874;0,963344386958455;0,963323712114653;0,962849611987845;0,96185449297905;0,960906999109865;0,959643930134336;0,958255820494105;0,956126510641615;0,952396672872785;0,945472713086274;0,932842505518138;0,920283720527093;0,909727441039574;0,902227668974108;0,898548607467167;0,896863970561967;0,896000764036242;0,895265197027528;0,894454647464246;0,89431743985295;0,894879135213171;0,896280029325123;0,897948793437116;0,900013088942286;0,902301338722418;0,904310924654292;0,906213928705751;0,90792124722341;0,909284963499299;0,910128972514789;0,910617244896965;0,910547104763691;0,909818063067864;0,908389241186508;0,905744488500708;0,902131621344802;0,897584786057558;0,89167396090759;0,884277242055431;0,874938514087751;0,863716825786978;0,851038460310714;0,837164300032223;0,823176617754218;0,810172483653179;0,797695521369482;0,78420754831871;0,767028041613961;0,742307846344802;0,705100272959189;0,653223279424375;0,590136523455699;0,526307984360783;0,471417486589558;0,429783525575282;0,400986757626773;0,381984486031577;0,369952345728593;0,36282277665728;0,359405270904155;0,3581482827149;0,358635826493414;0,361155598511962;0,366169697576271;0,374190654476168;0,385381478680089;0,398528002737837;0,412720027483972;0,427705714975229;0,44318604919742;0,45884709328314;0,474581590474568;0,490018317369109;0,504908601988721;0,519456043040495;0,533491771807465;0,546755331144758;0,559535545924953;0,571728792452515;0,582874494826164;0,593516678952682;0,603507263242986;0,612679356006159;0,621369027906161;0,629640892783735;0,63717061135119;0,644186009010829;0,650685282337358;0,6565520506247;0,661932902598521;0,666591435877276;0,670666762284767;0,674273464262957;0,677349799287451;0,679700779405941;0,681414525470766;0,682363032571959;0,682812606463578
"4626_2022-07-26_calib";"calib";"4626";"2022-07-26";"WW";3,67258873125831;0,726841598272302;0,753076124898705;0,778245739966291;0,806588106900761;0,831757910594385;0,85095586694369;0,866313907526111;0,874864998281591;0,878836314161894;0,881551789512738;0,884157158730166;0,887512841962901;0,891175693409676;0,895014670536695;0,898961063052648;0,902749149965067;0,90666815993217;0,910766495385686;0,914546189324593;0,917811987076449;0,920792707474851;0,923492701763529;0,9254238906898;0,927445355609217;0,929004595902412;0,929880350006846;0,929903255762652;0,929962974816778;0,930193680968046;0,929723939247385;0,928744542658047;0,927739371465439;0,92651422367415;0,924856383491538;0,922620748265097;0,91863874439852;0,910539451680252;0,896309302023409;0,882019090728137;0,869320358918399;0,860384235543825;0,856105958941297;0,854045837577451;0,852844836886347;0,851720325906686;0,850718367602663;0,850501707713264;0,850867900323075;0,852252665284818;0,854177674072422;0,856344950101232;0,858689437280564;0,861079385410026;0,863276096974904;0,865152977658724;0,86671658041626;0,867971408771781;0,868518245262878;0,868421572886839;0,867668296091513;0,866083039218911;0,862973207036805;0,858802124363172;0,853773059543673;0,847431283525304;0,839383469699684;0,828997013907765;0,816475260699818;0,802363024195494;0,787145813689997;0,771839055564157;0,757804043872265;0,744501902390269;0,730000716113648;0,711910035070806;0,686043623886987;0,647661500843786;0,595002318328562;0,532572871976245;0,470550304290466;0,418211217534492;0,379018851599746;0,352020697120957;0,334252262414383;0,32291760559581;0,316140901466772;0,312761171622574;0,311307922775771;0,311525063075071;0,313487892804482;0,317869441989315;0,324905736329894;0,334962418827755;0,346819907976919;0,35954583887738;0,373166718663176;0,387356908514258;0,401701606503149;0,416302892431866;0,43069608854934;0,444590537025494;0,458207475436625;0,471380124961536;0,483917663155905;0,496106537898438;0,507646028605433;0,518367805239699;0,528607803085078;0,538320249037324;0,547243686189215;0,555774830968116;0,563923125113446;0,571429834727914;0,578527099142063;0,585045411527933;0,591096693513522;0,596676479514902;0,601570679328091;0,605886838994106;0,609752777606761;0,613001420849772;0,615605225091002;0,617595446364789;0,61879217778969;0,619504411961023
"4628_2022-07-26_calib";"calib";"4628";"2022-07-26";"WD2";3,54385006617954;0,731894333741594;0,760138358772782;0,787207345459791;0,815957743799765;0,841597198119262;0,861426940421096;0,877388317774662;0,886534165860037;0,890072144438901;0,893584280025192;0,89642564790038;0,899601084660522;0,903661634968502;0,908166075120981;0,912280024747787;0,916388600398355;0,921166683967436;0,925309538079007;0,928984726389347;0,932712958371762;0,935817692972637;0,938358067433356;0,940439536573237;0,942271409612824;0,94349880728086;0,94446493900003;0,94472534908198;0,944714618256639;0,944605390164888;0,943786583481624;0,942547232753343;0,941423400239706;0,939900012290058;0,938046506542171;0,935334695653031;0,930685705616757;0,921809523607886;0,905503901649507;0,889873144384486;0,87692734811807;0,867595553859931;0,86306899940478;0,861159610755756;0,860148152215651;0,859326514234045;0,858568089777214;0,858395120860777;0,858889954560022;0,860450274867846;0,862452672332975;0,864866130949399;0,867428092119236;0,869793170529141;0,872021824347883;0,873996757423141;0,875678189218301;0,876830748234043;0,877184910072277;0,877003854856798;0,8760724554319;0,87426098472346;0,870988145589994;0,866443209362156;0,860795950408074;0,853645978668214;0,84459541796116;0,833220448837848;0,819659956736423;0,804437180369131;0,788039753118503;0,771621766876283;0,756604190945345;0,742303022593667;0,72691274622801;0,707541524830406;0,679958506979133;0,639393269101342;0,584416139146933;0,519953346908929;0,457019838643623;0,404752187787156;0,366269367797092;0,340211264851867;0,32334208683764;0,312790728952632;0,306704333675991;0,30374451992759;0,302637485783649;0,30296881529205;0,305058026715895;0,30934579235551;0,316270454881831;0,326049862119678;0,337704976699137;0,350320910906783;0,363820348819241;0,377936789455348;0,392326397283777;0,406978984686397;0,421497749824011;0,435608088350349;0,449560327060957;0,463173868806533;0,476074906636456;0,488757059087969;0,500889847825659;0,512062489014408;0,522771408101298;0,532829112485921;0,54205915984249;0,550840730050356;0,559135495205282;0,566707999634553;0,573748923687927;0,580232747782451;0,586100798733019;0,591476639909605;0,596055356017617;0,600076417080504;0,603553419267022;0,606439131511955;0,608628804709606;0,610230811841419;0,611234777013272;0,611875623547679
"4960_2022-07-06_calib";"calib";"4960";"2022-07-06";"WD1";4,73928052762533;0,755170938535765;0,783259158897844;0,810448685355522;0,839434400003238;0,864830110188839;0,883713921607089;0,899523189329431;0,908009614403966;0,911444085531941;0,914542845048644;0,91771013456252;0,921689262534039;0,924904018243712;0,929480131309076;0,933819874180334;0,937408784719143;0,941865493418661;0,945817889047225;0,949269507201001;0,952721658375229;0,956076849982139;0,958454094423263;0,960648098592479;0,962649880288804;0,964124800558329;0,964933337402197;0,965171956784577;0,96530446052151;0,965158414763762;0,96453620331479;0,963401111920025;0,961998323248839;0,960277863657868;0,958246976397464;0,955389507978486;0,950802181593108;0,942118724881801;0,926912850607556;0,910746925978353;0,89678702388946;0,886764130557951;0,881228708822931;0,878567622377936;0,876920388351184;0,875518311311585;0,874077380922979;0,873436331401116;0,873713444588618;0,875423157274362;0,878000238954697;0,880950065186104;0,884164478974069;0,88706483223266;0,889697930446993;0,891966578884508;0,893806673019442;0,895193372237522;0,895799038094473;0,895714345514118;0,89489843019479;0,893154348435248;0,890060215765295;0,885737070773105;0,880041212492637;0,87273663873733;0,863489016136195;0,851928561234889;0,838106796869061;0,822526884346569;0,805920160566453;0,789223183410951;0,773631253510955;0,75864005380316;0,742553256067594;0,722590051788272;0,694525752831662;0,653386920441018;0,597709939285057;0,532776881526255;0,46956861068636;0,417099609218315;0,378479096144376;0,3523081604753;0,335348214465388;0,324661950473525;0,318306152546098;0,315042402072848;0,313635267010468;0,313787045920166;0,31560910570865;0,319728649675563;0,326262430555873;0,335453311425809;0,346416340979457;0,358497307516083;0,371542999331051;0,385324705713088;0,399269828007871;0,41363208240574;0,427945115187707;0,4418249267991;0,455592436669861;0,469061978200575;0,481908707936499;0,494540129693146;0,50658494405664;0,517698455144341;0,528472788165819;0,538641359175469;0,547965601119036;0,556887077937306;0,565345325181384;0,573162912556797;0,580495500732504;0,587199960595134;0,593151138274802;0,598699867825504;0,603524546709049;0,607726721512845;0,611285791902343;0,61424502901764;0,616550908814328;0,618119520761657;0,618655752965672;0,618628550542523
"4967_2022-07-06_calib";"calib";"4967";"2022-07-06";"WW";4,62610367920442;0,721175533570677;0,746809193414575;0,77211925053395;0,798678793423188;0,822733496176143;0,840645246496635;0,85516201199615;0,862476049684646;0,866560535960422;0,869066164540343;0,872046439941751;0,875395782316346;0,878177027265623;0,882176397430838;0,886287398778427;0,889947052566605;0,893804075174132;0,897725483319532;0,900934721772456;0,904171312400403;0,907416403817546;0,909792761918505;0,912111338246906;0,913966606618654;0,915403306662182;0,916216344484229;0,916736867398042;0,916769096034595;0,916747825196453;0,916388584130181;0,915390876389561;0,914445341668551;0,913170035384936;0,911555467415821;0,90902387519102;0,905018663211088;0,896876536171631;0,881496410327247;0,867546656736293;0,85606721666778;0,847412385543404;0,842679855764913;0,840380352963894;0,838943645986374;0,837738623124416;0,836550187574653;0,836243493063846;0,83677474987492;0,838527525272773;0,840870945241285;0,843509227363565;0,846364359561051;0,84895975494198;0,851387797322302;0,853520118417308;0,85525912915664;0,856652447250587;0,857262211611566;0,857231553555109;0,856636799601476;0,855207526296573;0,852502601861769;0,848680510814578;0,843685412411112;0,837200708725972;0,828978192993648;0,818568265843061;0,806056319720921;0,791958017893175;0,776779485902355;0,761519434490412;0,747262362569845;0,733557185019229;0,718894354759662;0,700730347098507;0,675006872271128;0,637055186375368;0,585339284702889;0,524203882169955;0,463930887977061;0,413305180733397;0,375561502118043;0,349722922528664;0,332757413500302;0,321888046100668;0,31539107929687;0,311936254684554;0,310428774072277;0,310484635600673;0,312282771597016;0,316323939089524;0,322744371838316;0,331822642079777;0,34259930353814;0,354454069095003;0,367249511140926;0,380639602727934;0,394133849119298;0,408031668294654;0,421826816712884;0,435163622231096;0,44830080738231;0,461188078436481;0,473431999204599;0,485391871780284;0,496826179080269;0,50732419902364;0,517503218989792;0,527129300831386;0,536009345876382;0,544535089302996;0,552635230294508;0,560173369486485;0,567270261593772;0,573827612307737;0,57959253147086;0,585043798627854;0,589802574763725;0,594030066174949;0,597923290493623;0,601156518387429;0,603629846703978;0,605354426282752;0,606071754101081;0,606172825013567
"4968_2022-07-06_calib";"calib";"4968";"2022-07-06";"WD2";4,41389708841523;0,759552498706015;0,784277085674886;0,807641342730272;0,832482284759392;0,854482197973118;0,871489416021524;0,885278443558625;0,89254023502687;0,895945717300406;0,898755828059297;0,901686792283896;0,905080134474475;0,907970782066765;0,911697164064864;0,915485920403337;0,919010325955254;0,922700057914962;0,926177373798449;0,929016587764236;0,931798335517451;0,934821342766809;0,936832114847089;0,938775096723116;0,940507099340981;0,941871717255861;0,94249425494649;0,942737351403453;0,942844841227578;0,942845014491679;0,942412489906885;0,941487167652139;0,940549434069042;0,939238720479728;0,937626061110724;0,935230493222711;0,931398849764272;0,924049838666179;0,910540283517651;0,897506716552595;0,886641732309227;0,87864213280836;0,874515797114709;0,872555374818997;0,871448422431061;0,870595379921411;0,869749258403383;0,869589337988789;0,870156613545213;0,87161470795129;0,873613491381848;0,875931134380502;0,878382210362952;0,880619816427398;0,882672777812352;0,884412595028031;0,885909087263803;0,887036425802631;0,887537546152404;0,887418051805764;0,886683708492458;0,885252668988599;0,88252854242592;0,878847659979099;0,874043153656969;0,867911836658894;0,860155709274769;0,850323202591487;0,838571742808575;0,825236026597124;0,81102031285084;0,796588467954974;0,783081579020391;0,770045284186153;0,756038445047248;0,738393053361454;0,713095061976061;0,675535542323743;0,623808131935473;0,562044045222766;0,500446867129997;0,448322108737032;0,409273751399029;0,382448072463008;0,365002917023112;0,354002054436013;0,347486644397852;0,344230094709022;0,342983937652352;0,343307218984979;0,345486100881579;0,350118310355164;0,357334315896311;0,367375244255887;0,379185902582263;0,392112432937342;0,405898269529835;0,420371587483688;0,434840616211087;0,449648757309796;0,46426923522334;0,478360249736018;0,492246486706537;0,50572199775076;0,518535397900872;0,531004182326781;0,542875326278196;0,553788541074861;0,564251565618859;0,574105386887088;0,583127828586488;0,591697199144408;0,599735805407302;0,607108422500867;0,614007532470446;0,620256027936264;0,625752023421562;0,630907979985627;0,635339485211368;0,639229263476266;0,642524790894188;0,645248054020195;0,64743372532326;0,648915262772873;0,649456077381267;0,649462350290018
"4700_2022-07-06_calib";"calib";"4700";"2022-07-06";"WW";4,0460723310473;0,742360100849285;0,769482902138159;0,795655918616586;0,822309019012119;0,845022366706989;0,863828423620127;0,879024779694978;0,8864556593508;0,889936811587691;0,892810823295088;0,896337504155986;0,899641732083751;0,903358014136085;0,907298721144567;0,911726858559279;0,915819550120056;0,919901826174056;0,923867307939526;0,927589688580593;0,931488656917502;0,934320267673698;0,937019282374311;0,93935007177951;0,941193209305557;0,94245622424792;0,943379775541417;0,944211284508239;0,944166659574088;0,943744846407468;0,943091823184772;0,942182739804974;0,940716875603279;0,938836148950208;0,936787751208881;0,934001998461912;0,929428448999575;0,921058287661254;0,90691980095523;0,890040453991193;0,875076735391513;0,865007282393653;0,859955178686785;0,857702535482244;0,856419117639938;0,85523882161141;0,854057070522482;0,853739091613314;0,854210968663124;0,855832736378735;0,858009701827724;0,860617461275414;0,863259774044899;0,86568215728473;0,868005104812871;0,870107200895581;0,871737381814207;0,873066913179301;0,873556862893439;0,873375897019609;0,872370973846981;0,870375998934859;0,867132664693045;0,862644582721526;0,856637524529402;0,848824940020853;0,838933485639219;0,826850529691212;0,812532786223664;0,796508128908958;0,779619556771253;0,762799392413079;0,746968829674833;0,731862424660332;0,71576988805237;0,695863128991451;0,66767162743366;0,626515859598938;0,571224543564439;0,507465565363976;0,446090538676407;0,395951340824577;0,359556546826714;0,335042181282023;0,319275820323733;0,309410149468201;0,303302389624466;0,300174999758929;0,29897375299651;0,299118717850388;0,300894724712484;0,304968866628637;0,311293553826213;0,32005000791548;0,33054489302918;0,34216941699439;0,354842213477044;0,368227752449171;0,381886662758931;0,395930021961193;0,409887468711091;0,423606948223792;0,43717573458671;0,450510471405915;0,463220648555489;0,47572898028422;0,487772394739654;0,498850464637147;0,509493357247335;0,519548866367802;0,528876214835929;0,537698061011045;0,546065244002946;0,553644620659902;0,560898397507336;0,567426439969243;0,573212970450989;0,578654523693517;0,583362465419558;0,587361793286777;0,59071291144904;0,593506699405072;0,595825620438619;0,597530042976291;0,59837957875055;0,598741228537933
"4703_2022-07-06_calib";"calib";"4703";"2022-07-06";"WD1";4,37145577025739;0,737430377152626;0,765007535442604;0,790637605847283;0,817784424786974;0,840778009905443;0,859499298278216;0,874495560428858;0,882887119318258;0,886250104370881;0,889247939280289;0,89267785666523;0,89594971634085;0,899714230176669;0,903674608399864;0,90803621433257;0,912061315099857;0,915889383840556;0,919752024924952;0,923641010985666;0,927300814695373;0,93006819865581;0,932818138921652;0,935188246112628;0,936716372829042;0,937941717787571;0,938887653773112;0,939541307309417;0,939497375550448;0,939100398668787;0,938484937465397;0,93754840299714;0,936037223416731;0,934210751986752;0,932144821911918;0,929348278198964;0,924757244105577;0,916510977417337;0,902533908756379;0,886018405906268;0,87130566811904;0,861133861621879;0,855879466499363;0,853515180842482;0,852235889465557;0,851001162757963;0,849674213853996;0,849336732026025;0,849794860365518;0,851365423232726;0,853498995452052;0,856063525688881;0,858735459365143;0,861337071381162;0,863759700773017;0,865799114086904;0,867444905937165;0,868757404427778;0,869310692469173;0,869176066320037;0,868208150061901;0,866319513906517;0,863257245880925;0,85892172756538;0,853103768702475;0,84548303227643;0,835820968178649;0,823999296685272;0,809933044338828;0,794201088031176;0,777451286877332;0,76077814253489;0,745109333869853;0,730089135681132;0,714146285911984;0,694531679597699;0,666663832676388;0,625867388557091;0,57093079738908;0,507176283510643;0,445502880597444;0,39484302668976;0,357903060957351;0,332869625961378;0,316705736667517;0,306526421041952;0,300320906686073;0,297093363475451;0,295909499911241;0,296078777554853;0,297908790111157;0,301995703624388;0,308363787358151;0,317211632696137;0,327747927830732;0,339451753199332;0,352174244924884;0,36559822505429;0,379245305506666;0,393310206846004;0,407268287328525;0,420895574792655;0,434373189505347;0,447623356733256;0,460263539624423;0,472647233444173;0,484530640094563;0,495511069444;0,506051359868627;0,516040045313349;0,525287108830458;0,534092717219058;0,542519607166842;0,550178419057478;0,55754503668142;0,564185626732014;0,570127083794877;0,575685921084262;0,580569786032635;0,584695612851502;0,588274070272692;0,591265713591523;0,593642634752989;0,595378228737779;0,596296190739834;0,596739578585793
"4707_2022-07-06_calib";"calib";"4707";"2022-07-06";"WD2";3,33871702841665;0,74586345369752;0,77155892283089;0,796096359373603;0,821064900268256;0,842813247478208;0,860480141036087;0,874390025851549;0,881893421749483;0,885539514653878;0,888402537431259;0,891449211482127;0,894421831702927;0,898057775854648;0,901980612204279;0,906105461070401;0,909810098133836;0,913486294542194;0,917164089666635;0,920638639910328;0,924099617305558;0,926711632126252;0,92919676753797;0,931205694348069;0,932998461457335;0,933908075028002;0,93452196695447;0,9352410928329;0,935083051013208;0,934583210525524;0,933964169629156;0,933032549684549;0,931585367995354;0,929658200550458;0,927599975640753;0,924898727794458;0,920579714205106;0,912719577277583;0,899387394190281;0,883855824744762;0,869993878510241;0,860660717018795;0,856099429096374;0,854145246589713;0,853186974119771;0,852433154830985;0,851567126017903;0,851335640179702;0,851805751396985;0,853211971465508;0,85508948919082;0,857329872435235;0,859806840061573;0,862149355597405;0,864292846040908;0,866153461630468;0,867706520922248;0,86889072555819;0,869264803263461;0,86906211577489;0,868088750656336;0,866218346695223;0,863155741418833;0,858971052796849;0,853345093975598;0,846009808667964;0,836736788621798;0,825341119663298;0,811845495254036;0,796719039017254;0,780639162168925;0,764651063560447;0,749538779721972;0,735096792879698;0,719619749188651;0,70040692367346;0,672935738455294;0,632517589877923;0,577886299541337;0,514256032780848;0,452360931147473;0,40141005990142;0,364191492066485;0,339146082816979;0,323102122027305;0,313175405090321;0,307307046633313;0,304463360756792;0,303763547840846;0,304227337866367;0,306508024198993;0,311176863295166;0,318230384655583;0,32783585318778;0,33922020455515;0,35173759870794;0,365262439520107;0,379507003750619;0,393935564035092;0,408681899756672;0,423276204474139;0,43750492508483;0,451494534093085;0,465164019461307;0,478230388296326;0,490937370016791;0,503159422672164;0,514407498355921;0,52527782396255;0,535458252106011;0,544897403749534;0,553798554590967;0,562241512759161;0,569899804525582;0,577225682005545;0,583794554657726;0,589664457067602;0,595165311319395;0,599948666037286;0,603952359281578;0,607299290135469;0,610110189144455;0,612412646943866;0,614127526609519;0,615020599208722;0,615467937334488
"6111_2022-06-14_calib";"calib";"6111";"2022-06-14";"WD1";3,09821622552223;0,738257797152513;0,764925343735109;0,78918855556988;0,815612391765751;0,841103982350036;0,859902307685531;0,876432374267623;0,885004787777128;0,890089203998295;0,893300085075799;0,897372376760534;0,901484638647215;0,905685255455265;0,909602026097119;0,913441238676857;0,916936691861912;0,921262802221755;0,925616153074566;0,928801403767737;0,932228359094422;0,935402911590593;0,937869995277989;0,939877211739116;0,941198117047185;0,942558679783352;0,943688641708715;0,943942321978294;0,94411572003296;0,944011923251227;0,943589607333537;0,942755527983797;0,941545216008965;0,940344854272326;0,938706565892771;0,936336345186918;0,932464773450815;0,924552531186283;0,910509876404549;0,896911956657152;0,88561395399205;0,87736209614369;0,873226670345558;0,871167456385536;0,870316345619169;0,869598585146689;0,868648114246601;0,868529153253773;0,869208735350769;0,870823419537372;0,872901746413399;0,875279432256876;0,877871211523434;0,880103657649098;0,882304885623262;0,884254316603931;0,885949801223926;0,887061304399249;0,887538870811474;0,887567693235919;0,886986505399835;0,885457637464467;0,882725177648643;0,878802493342708;0,873913013785399;0,867563711266986;0,859389957708384;0,849232197117034;0,837064396162176;0,823421737963114;0,808799287582257;0,79416886080684;0,780546846424274;0,767296849624869;0,753005391291326;0,734927011181582;0,708955715023475;0,670339136045063;0,617407397193559;0,554566113505277;0,492399795747464;0,440392073087905;0,401750015002535;0,375410430014563;0,358276509002757;0,347489058152254;0,341024225857348;0,33768848449068;0,336400063653806;0,336708478951481;0,338864745522909;0,343548884018852;0,350862701126079;0,360968390336706;0,372783824240355;0,38578010587469;0,399713955431976;0,414238277309548;0,428976220082551;0,444000707817672;0,458937755833506;0,473367709758889;0,487628546631176;0,501471487730922;0,514724868398005;0,527554779148087;0,539798172651825;0,551108420292487;0,561859000697626;0,571990509593129;0,581246836962009;0,590011946222475;0,59835953249196;0,605983747910726;0,613057271398208;0,619530864850034;0,625338618772256;0,630679132522441;0,635430343294981;0,639689494906519;0,643495258226505;0,64675496391235;0,649308496427709;0,651110953390407;0,652040464499788;0,652399283602195
"6116_2022-06-14_calib";"calib";"6116";"2022-06-14";"WW";3,31042281631142;0,731132285270021;0,757190994349236;0,781605263544831;0,808898902150056;0,83453175830142;0,852415125947296;0,870117935237064;0,879157882552945;0,88361474199942;0,886744656158136;0,891101352678727;0,894705855673117;0,898773783082677;0,902951490897719;0,907133829516072;0,910833259339695;0,915282488796577;0,919617165528731;0,922685009673184;0,926119985610929;0,929274290728509;0,931646370893931;0,933749133497227;0,935575694332073;0,936793753058308;0,937775362440027;0,93817510678001;0,938314176952862;0,938014661634828;0,937514646097275;0,936598129822241;0,935282601630823;0,934050524099326;0,932367265390034;0,929959783075938;0,926043965794713;0,917896597795762;0,903341012514158;0,889445463474528;0,877973752975197;0,869573121723071;0,865403159509764;0,863404136709138;0,862537022689372;0,861872888982084;0,861077527791855;0,860973866196742;0,861656472199444;0,863208988275973;0,86519964037135;0,867491349215717;0,869950001756681;0,872062990046498;0,874091739754282;0,876065572498985;0,877661626391158;0,878658381965378;0,879111061239022;0,879066068320872;0,878293117625493;0,876604392654637;0,873715932706146;0,869660423266637;0,864552402031438;0,857924813063141;0,849516584771346;0,839039528160758;0,826428503388099;0,81235602386009;0,797364731860288;0,78230359606513;0,768389584288128;0,754941157728168;0,74036572941779;0,722000799283235;0,695670601418005;0,656550837000659;0,603184663404644;0,540030900461549;0,477878579294361;0,426071800630161;0,387617571016504;0,361518965752447;0,344623362311669;0,334002271141081;0,327695280576878;0,324546855610673;0,323332369931417;0,323653020261392;0,325741026662235;0,330275761168764;0,337482599523484;0,347380377960041;0,359053281960912;0,371824838418814;0,385511770624795;0,399813112940808;0,414359131966144;0,42911916847697;0,44385894145191;0,458050460188309;0,472023099860084;0,485655013285627;0,498618986479574;0,511251782260809;0,523348040222922;0,534511530195504;0,545086005501432;0,555110022248772;0,564258517278206;0,572874606449905;0,581047109818652;0,58851337575618;0,595431588245202;0,601772310341807;0,607458023785457;0,612677642117254;0,617272274173511;0,621307542712022;0,624740305891813;0,627679840390731;0,630030796790982;0,6317860319085;0,63275424572805;0,633323361634128
"6117_2022-06-14_calib";"calib";"6117";"2022-06-14";"WD2";2,87186252868042;0,767829326379988;0,793181099226799;0,817001917282968;0,842728818381475;0,865961726116948;0,883666332462042;0,899576885402934;0,908847523667023;0,913685616619629;0,916676455674323;0,920771843910777;0,924590653444834;0,927992067692841;0,93243149911176;0,936756267829562;0,940174315715146;0,944064193570307;0,947551849493603;0,950480989965395;0,953288483414333;0,956211062384148;0,957974750916856;0,959510784854078;0,961245574878615;0,962459037443126;0,963195615861372;0,963395741691873;0,963318591646187;0,963081932592527;0,962586324800137;0,961692760345766;0,960638059056222;0,959298431209886;0,957665626707842;0,95532793540048;0,951430270913172;0,944023014270361;0,931069217280453;0,918005177811914;0,907255050510644;0,899848691924486;0,896266727349446;0,894527834973357;0,893863595016213;0,893289019133081;0,89267911305737;0,892640397841491;0,893256928076574;0,894819756628545;0,896810124562366;0,898834839789322;0,900900232208473;0,902982177946816;0,905016409197515;0,906793832893169;0,908055060385014;0,909105536576067;0,90940584702689;0,909238488566799;0,908455614373375;0,906886284467052;0,904223603688983;0,900589662096646;0,895828408426823;0,88961935896685;0,881926383297477;0,872151413957589;0,860330983860953;0,847094602536331;0,832950280632348;0,81877138828604;0,805416213628628;0,792559801759673;0,778652697080373;0,760906382129202;0,735245351450013;0,696688663366589;0,643198823561485;0,578947184626498;0,5146287276146;0,459972171598633;0,419208335942971;0,391355795906671;0,373492021833798;0,36217628774671;0,355689433210161;0,352594513923691;0,351808046284127;0,352377944492487;0,355033537103878;0,360310427876642;0,368467363149026;0,379566092702216;0,392605118374719;0,406763180591363;0,421788823979518;0,43745509907835;0,453195165035153;0,469196173168526;0,484845585891765;0,499952449496929;0,514727230169519;0,529035537514642;0,542523986763937;0,555648035318175;0,568097920599477;0,579575109093455;0,590430824829142;0,600666505433086;0,610028339916512;0,618795142298488;0,627100911049368;0,634679163652058;0,641773956037848;0,648136773561832;0,653855062214945;0,659167565313428;0,663820924600431;0,667831479904734;0,671332849264425;0,674369856358652;0,676789041646414;0,678535124776483;0,679618285523676;0,680296595158319
"6142_2022-07-06_calib";"calib";"6142";"2022-07-06";"WW";3,87630705841594;0,743920249443024;0,767456320081663;0,791100748464846;0,815124058087915;0,836200607384837;0,852490345939051;0,865899268851526;0,873526989455163;0,877843558103244;0,880181653895797;0,883048374884277;0,886565785344836;0,889765592573705;0,893001682486357;0,89645785165711;0,899945896523215;0,903220114650586;0,906529107841731;0,90957047100516;0,912591874868266;0,915037926022191;0,917188326747612;0,919317410228852;0,920966589240175;0,922077760201035;0,923022235948205;0,923660006306246;0,923829795092164;0,92386099589301;0,923595327625098;0,922808398269314;0,921889657229878;0,920841650674155;0,919432958123629;0,917373931127298;0,913745256179984;0,906393529899758;0,892987232917156;0,880579859050144;0,870420023543119;0,862642596593032;0,858216468320186;0,855703518075835;0,854198312052529;0,852958095030855;0,851812222970307;0,851196883245658;0,851439144306356;0,852984954504696;0,855377192524248;0,858154503230909;0,860763444650454;0,863220097412894;0,865496771039099;0,867478537348989;0,869033374680354;0,870204113233137;0,870715844612302;0,870679722308182;0,870134193738002;0,868715841154309;0,866240154274228;0,862775079382439;0,858214345258355;0,852342271360867;0,844889773082788;0,835503494481044;0,824240811895022;0,81150381830983;0,797687578338737;0,783859322130964;0,770761828981532;0,758130308489619;0,744406902280129;0,727350962647581;0,703082237061045;0,667092083731331;0,617353071677661;0,557931585099817;0,498255382351739;0,447426725659593;0,408892768491746;0,38204448647372;0,364287984235641;0,3526868323485;0,345569661149942;0,341694114058911;0,340048986955248;0,340028070160447;0,341847888321614;0,346179914970289;0,353060059179465;0,362625342771659;0,374029890013473;0,386503866686036;0,399883613230786;0,413918997493876;0,428104520512671;0,442496808406448;0,456776055640115;0,470562769198051;0,484149373739201;0,497366886428408;0,509876988045521;0,522099860447364;0,533724956834343;0,544416671566855;0,554633618338903;0,56428300162201;0,573212438472046;0,581689222517581;0,589809740102478;0,597261940045094;0,604254922614913;0,61068571117865;0,616419627696664;0,621680555946682;0,626320184439701;0,6304275432532;0,634054181976462;0,637090587031261;0,639471754557966;0,641082346442636;0,641565482958983;0,641456526496559
"6144_2022-07-06_calib";"calib";"6144";"2022-07-06";"WD1";3,23968728604836;0,751268036449362;0,772017231474306;0,792105807834597;0,81343804261042;0,832421913181691;0,846848866024977;0,858323781798029;0,865264813358236;0,86913360326312;0,871461871825046;0,874008024231743;0,876979258238728;0,879850447129561;0,882719790172437;0,885949392452743;0,888939476527805;0,891701713139761;0,894586316068651;0,897088218986919;0,899614892274167;0,901671901646637;0,903392629156636;0,905223691935876;0,906537651809546;0,907461867177254;0,908105314151259;0,908732483030882;0,908880560723657;0,908951766720418;0,908737542638101;0,90815406653956;0,90736724460004;0,906510697483008;0,905358047514181;0,903624209205829;0,900503834238424;0,89382541238442;0,881441958422477;0,871046434888086;0,862824176117981;0,856334433076433;0,852864262563868;0,851047230306416;0,849980133291935;0,849141356154171;0,848388164994476;0,848074235867517;0,848448973037558;0,849875560390631;0,851746266363151;0,853972944398064;0,856171274059246;0,858093365257975;0,859886130872722;0,86157933287033;0,862860764553449;0,863742205220639;0,864094610777785;0,864011767673141;0,863400279288239;0,862087750496483;0,859813355845403;0,856713661781314;0,852676065828877;0,847467248755192;0,840891734432822;0,832581023172801;0,822595071506051;0,811194775892994;0,798896083496357;0,7864837158934;0,774779814902114;0,763386211526443;0,750981476823639;0,735413195419519;0,713047805215344;0,679654609459999;0,632967283068008;0,57640784787378;0,518691414161281;0,46880126623361;0,430690016901907;0,403923304470948;0,386369211357219;0,374987540396819;0,368209047437112;0,364696139866249;0,363454554177211;0,363745207233044;0,365931123544355;0,370640935258776;0,378030112763204;0,38810718214989;0,399959488715508;0,412766718167473;0,426451952240962;0,440692508129699;0,455011525089237;0,469459948468269;0,483643499936472;0,497242910694006;0,51061803796765;0,523512567750736;0,535728331827855;0,547568224283646;0,558803791585886;0,569090372195792;0,578865460198698;0,58810947936813;0,596569492526044;0,604597580383737;0,612233841729925;0,619159735863655;0,62566652127532;0,631582652152673;0,636900942027711;0,641784863082766;0,646038204049688;0,649673790847571;0,652737800093712;0,655385693257425;0,65755238316734;0,659049288730184;0,659520451853137;0,65944800900314
"6148_2022-07-06_calib";"calib";"6148";"2022-07-06";"WD2";3,90460127052117;0,776234504845756;0,800161593591576;0,822814150564532;0,846376012788053;0,867259034943168;0,882881114664691;0,896447868613887;0,904210179783949;0,9090184949167;0,912030644811231;0,914591719892017;0,917970812217233;0,921328304517515;0,924500720929667;0,928041500930009;0,931020804664761;0,933945285734556;0,937050296944299;0,939784199262891;0,942438178680563;0,944782799963095;0,946828958468415;0,948532299662449;0,949953777316531;0,951006367331644;0,951601205768584;0,952186978065562;0,952477596662526;0,952596934980635;0,952388886882498;0,951547583004523;0,95068924210947;0,94966954258359;0,948179805271164;0,94611999428304;0,942778184209077;0,936173390924508;0,924229128609985;0,912501247117866;0,902413865856476;0,894771284841492;0,890504667240087;0,888161574383092;0,88654697296669;0,885210930039735;0,884083610055189;0,883669248922592;0,884019211288138;0,885551379538061;0,887825479665794;0,890571198686068;0,893260330342626;0,895575825999933;0,897702646777346;0,899738186787911;0,901213924075526;0,902267351618235;0,902796570351328;0,902749803247945;0,902142721409964;0,900809168365751;0,898560721910162;0,895342805273584;0,891120989361711;0,885609085619343;0,878555382050443;0,869700225989502;0,859080557268089;0,84698568432883;0,833786048940515;0,820475528212374;0,807789079051596;0,795434330147449;0,782052804528233;0,765374097845526;0,741673253989657;0,706242914142087;0,65680347424335;0,596854517679085;0,535669991700422;0,482767608980458;0,442276871348049;0,413795880888442;0,395034181774945;0,382844136337328;0,375501785069677;0,371558375651247;0,37005495827584;0,370188793940723;0,37221628037207;0,376822456674696;0,384168652569685;0,3943436689412;0,406344764449191;0,419400940667143;0,433431315484907;0,44797191138606;0,462680641117732;0,477549421047937;0,492227249044371;0,506339134622446;0,520246668352545;0,533666074002186;0,546434644923354;0,558821198339506;0,570579280385299;0,581331349019037;0,59160358575697;0,601280099917725;0,61019402899589;0,618642007795817;0,626690778559695;0,634014746883182;0,640854386522576;0,647103217498301;0,65260114881833;0,657662889980313;0,662098269833785;0,665984221321278;0,669383508482636;0,67218871929733;0,674357520474082;0,675696630285733;0,675966471544581;0,675482257873366
"4432_2022-07-06_calib";"calib";"4432";"2022-07-06";"WW";6,26716798130752;0,703199046109974;0,732285756211619;0,760087973063362;0,788540371465623;0,814040315016855;0,833480212437279;0,848754272224691;0,856776120441382;0,860069622755958;0,862992099655214;0,866265973971481;0,870105142617698;0,87396635275213;0,877721385828296;0,882104674154981;0,886388832471676;0,890973835295008;0,895558685118147;0,899501318593841;0,903278882282903;0,906871873695981;0,909848387564627;0,912234507421229;0,914451510242468;0,915960143433935;0,916989170177992;0,917610989391017;0,917798302939577;0,917713847093597;0,917170933099022;0,916083594015824;0,914677228017807;0,912738983404995;0,910649015062813;0,90785386469064;0,902750971231032;0,892559121988453;0,874180131373715;0,85679820886663;0,842449538000735;0,831637391843125;0,825514747617602;0,822262573960378;0,820175748847565;0,818349057229178;0,816573732265617;0,815600165983035;0,815877287875266;0,817783324948649;0,820672056204179;0,824091460087378;0,827755738980267;0,830964055078336;0,833837271582711;0,836454330297173;0,83857028797516;0,840131032251863;0,840859915296919;0,840743717196165;0,83982192578238;0,838048182560232;0,834784272859162;0,830036066439233;0,82391370980973;0,81615247793821;0,806198098158969;0,793727881784039;0,778925845602271;0,762378758813693;0,744656986405101;0,726948948447357;0,710569120147436;0,694948188329924;0,678429787049071;0,658203788597536;0,62998922770592;0,589302435724766;0,535222023131376;0,47325667912451;0,414018070612846;0,365774744004304;0,330741663674139;0,307160936576704;0,291903393179345;0,282282454492433;0,276481352260876;0,273345290298416;0,272082801854278;0,272106244936789;0,273592290105597;0,277008997136899;0,282470312519981;0,290362867939454;0,299962355971454;0,310483069341133;0,322025358055035;0,334191738497663;0,346617030875125;0,359400467445049;0,372282220738967;0,384760152928913;0,397291989873318;0,409493027147978;0,421226183047001;0,432785101580297;0,443893789752269;0,454194635111724;0,464173850846538;0,473621898016901;0,48244837535116;0,490916407855944;0,499031831505708;0,506476515553281;0,513629830305313;0,520144780168185;0,526005272857948;0,531502726066192;0,536321213686906;0,540554229812864;0,544311469256991;0,547412403446066;0,549870305377258;0,551655948055837;0,552466607550408;0,552594623380769
"4439_2022-07-06_calib";"calib";"4439";"2022-07-06";"WD1";4,17339628552081;0,763858333053487;0,790309608269558;0,816236814625532;0,841338499913188;0,863914379185818;0,881432197975242;0,895476427499504;0,903535993001618;0,907441225061748;0,91043432458501;0,913400828674586;0,916688972977083;0,920266713081124;0,923702385759287;0,927399885552802;0,930539803497716;0,934449409193792;0,938132936683669;0,94091409101819;0,943960675185924;0,946797463592897;0,9489525310296;0,950862611381418;0,952655719824684;0,953752113250885;0,954441172153372;0,954800899294886;0,954996521583088;0,954851021845487;0,954328790318454;0,953554288847947;0,952413510857712;0,950735560599114;0,948988150009975;0,946662560454021;0,942488381478787;0,934725452719557;0,920809405538204;0,906762395697344;0,894876592445932;0,886094256060212;0,881248226040839;0,878733720056989;0,87712685704531;0,875745383131773;0,874396664326482;0,873688271475664;0,873978822900144;0,875606875852717;0,877875235736915;0,880452767424645;0,883297987781524;0,885960540175644;0,888272201624689;0,890260714387083;0,891954496757354;0,893180621576622;0,893782781678277;0,893673362927374;0,892861464853628;0,891403596712353;0,888748475652767;0,884886497869054;0,879843341128219;0,873418464759184;0,865101263030988;0,854707551899751;0,842238684614222;0,828163439862015;0,813025307685846;0,797750882433222;0,783398289952225;0,769478007752175;0,754677018288881;0,736317448044832;0,710122938646718;0,671381874123359;0,618250491746264;0,554948581415132;0,492065331008419;0,438903624992174;0,399043888706635;0,371455175645032;0,353341639610877;0,341697928958302;0,334568971078892;0,330743830928454;0,329155052771533;0,32923358782139;0,331090313644149;0,335303193919339;0,342159547888067;0,351752078754913;0,363309490270286;0,375907569029918;0,3895590067562;0,403796249269177;0,418189559458438;0,432861861597001;0,447386796537593;0,461436161891488;0,475295596334201;0,488659716614079;0,501481790884739;0,513862966203796;0,525758443566885;0,536662066278646;0,547185012988086;0,557122829974987;0,566292236020051;0,575115302016592;0,583477731690319;0,591169521145358;0,598500745484598;0,605171451353674;0,611155118873063;0,616713368293981;0,621572260234833;0,625800498419226;0,629504576019713;0,632578063442769;0,635045989399044;0,636845698834597;0,637645108881956;0,637746411397329
"6201_2022-06-14_calib";"calib";"6201";"2022-06-14";"WD2";3,31042281631142;0,739898468376712;0,76689289942986;0,792150003797279;0,819779205922408;0,844605426234159;0,863666365664763;0,879876941756969;0,890064891572826;0,895172611817076;0,897983835717487;0,901588679314261;0,905667683348437;0,909231094400757;0,913992553266431;0,918167800792358;0,921841223904586;0,926157774571045;0,930002214939771;0,933486884389035;0,936497072745178;0,939599907018501;0,941628796569549;0,943637046029544;0,945600652785589;0,947018314703499;0,947516699905857;0,947639910074375;0,947627973265839;0,947428634457204;0,946972008389613;0,945840115122311;0,944766752970871;0,943373757742698;0,941476119803492;0,939011754029233;0,934918161033787;0,926682074917481;0,911949520343077;0,897811632938995;0,886536192306902;0,878369779884169;0,874186207066002;0,872289249569596;0,871332340680723;0,870493454996041;0,869681210905643;0,869517998441744;0,86993161993987;0,871405516655225;0,873382004632578;0,875655964056319;0,878212170066887;0,880584320025966;0,882889870591222;0,884842744168059;0,886280126158308;0,88759224587965;0,888079509954069;0,88797769591603;0,887240663838868;0,885670731380121;0,882881162792414;0,879021121294705;0,873931435089979;0,867355587302638;0,85926589353855;0,849011574180253;0,836572818601625;0,822629384886394;0,807830610246929;0,793020004812435;0,779208621178406;0,765948830000165;0,751652158987905;0,733633751174782;0,707662074993154;0,669010643834314;0,615927099463708;0,552775611301553;0,490309912912056;0,437614066156846;0,39835398546409;0,371452140030723;0,353984552048196;0,342759926480323;0,336088522107214;0,332650593491888;0,331307019102033;0,331512070142807;0,333757874250038;0,338465946535516;0,345879134023886;0,356141638275485;0,368207683225242;0,381442636178909;0,395626877272886;0,410424126761269;0,425424629883103;0,440717746287094;0,455836167201356;0,470462059794036;0,484856218088951;0,498903122212125;0,512192035324521;0,525211049744554;0,537560699360911;0,548969018179106;0,559833154027469;0,570060316196831;0,579475442245609;0,588361323947373;0,596747025104578;0,604478038854003;0,611656280957999;0,618166772671175;0,624011132851027;0,629396064344264;0,634123264400785;0,638312445734819;0,642283709222767;0,645635833924258;0,648200935615411;0,65005229276913;0,651119927376242;0,651675130275397
"6202_2022-06-14_calib";"calib";"6202";"2022-06-14";"WW";5,30516476972984;0,674820978027852;0,705638126299695;0,734530144652342;0,765832901708684;0,794069097828784;0,81576840706634;0,833391140107581;0,843520025382397;0,848910659370096;0,851584153714284;0,855623946780181;0,859851973651747;0,863906258640377;0,869268493572408;0,874410847518581;0,879543545166614;0,884905141668352;0,889838251144312;0,894260113958153;0,898361255166094;0,902232879894614;0,905110923656855;0,907457543672903;0,909873758819306;0,911737811571781;0,91269618188906;0,913262645778371;0,913152064922845;0,912791654119909;0,912211961979415;0,911074579212125;0,909639970942501;0,90789195440623;0,905645374583384;0,902525563038661;0,897354002143876;0,88680502927438;0,867439908240338;0,849352685691275;0,834975865592881;0,824578214772656;0,819140133997043;0,816264887019601;0,814814382003511;0,8137199201265;0,81243601466018;0,812090353049206;0,812546839387158;0,8145315897458;0,817287889361121;0,820193706632635;0,823339202914915;0,826305006872159;0,829023657409058;0,831431128786195;0,833404397214769;0,834973970158084;0,835596095318266;0,835460430768992;0,834460773709052;0,832482248580372;0,829036702897237;0,824180964461119;0,817866056321748;0,809789646334318;0,79972115584669;0,786991011229282;0,771822440951699;0,755087399465701;0,737288024219691;0,719637297059235;0,703416158562151;0,687974012460555;0,671564975966322;0,651264077743998;0,622726731963047;0,581430776522692;0,526773501699311;0,464569202082803;0,405681566911987;0,35800789001443;0,323677861981017;0,300731042700203;0,286068504175862;0,27672874940331;0,271194383860484;0,268303476246075;0,267210296660823;0,267271188391487;0,268952705637504;0,272564282757228;0,278470874156319;0,286643243472893;0,296468003300514;0,30731267944532;0,319085390644753;0,331567352393585;0,344304626506556;0,357532021206375;0,370779439885169;0,383749195063345;0,396657575870414;0,409413602941095;0,421700361974121;0,433792759630688;0,445401303463205;0,45626762990645;0,466671659688112;0,476620672737602;0,485769170952982;0,49447725385007;0,502853291789275;0,510545887425425;0,517817357672284;0,524411690160033;0,530344730518015;0,535845246245957;0,540801590531074;0,545152863318596;0,549017072511983;0,552296120889357;0,554857215786945;0,556706613454464;0,557779345954053;0,558338700884891
"5181_2022-06-14_calib";"calib";"5181";"2022-06-14";"WW";3,74898310394242;0,729332241814291;0,757190480551592;0,78437109701466;0,813681491046044;0,83944849859487;0,860620823415992;0,878102813770151;0,886440472267181;0,891976628048066;0,896257082928286;0,899334346438856;0,902864333881322;0,907022603958938;0,911038925748406;0,915375263916547;0,920014552712976;0,92457301875562;0,928823075784998;0,93269325511344;0,936328723988155;0,939406426028321;0,942014362900481;0,944131488152333;0,945999025684636;0,947064896645245;0,948219079913432;0,948813619443119;0,948601105394853;0,94829635538678;0,947799807090452;0,946896813692944;0,945515189870211;0,943919109542414;0,942076255484955;0,939240125872328;0,934721564270108;0,926009855096974;0,909775221612206;0,894298408528715;0,881811891652119;0,872421970820995;0,867732983215914;0,865566520524116;0,864214576854783;0,86314790768868;0,862075226526619;0,861754517740541;0,862078851260593;0,86355415547367;0,865695417407101;0,868252862637318;0,871034448164142;0,873636457934531;0,876009004422027;0,878033044482941;0,879837757025508;0,881127937512004;0,881612535944798;0,881530406061399;0,880738644038176;0,878917943496884;0,875726481364859;0,871342858909828;0,865832835129479;0,858701860669144;0,849664303323238;0,838389021826141;0,824874767724049;0,809851370378244;0,793688272901103;0,777471679635458;0,762576939688663;0,748367219447601;0,732927014063808;0,713625115933192;0,686009065857609;0,64541774783026;0,590364576326107;0,525739541452818;0,46260112961855;0,410247115432342;0,371667903594165;0,345461591007597;0,328548561975994;0,317851659306296;0,311580516531036;0,308261093388723;0,307055062076678;0,307244494133188;0,309207799235046;0,313681807436506;0,320639925289181;0,330345746013788;0,342007901466153;0,354674032593461;0,368292063400902;0,38254720883781;0,39706259448704;0,411924984620564;0,426691869852048;0,441029051601157;0,455188589997933;0,469046937564834;0,482254838861629;0,495137497122796;0,507428547752756;0,518790798473232;0,529722201643076;0,539999206439335;0,549495134754976;0,558327919417202;0,566837272820091;0,574627741437869;0,581918483023514;0,58858181482343;0,594523589132908;0,600023540147512;0,604849563651039;0,609182448629965;0,613060462342903;0,616294893773561;0,61885435627036;0,620759212365685;0,622002424304632;0,622789426903472
"5185_2022-06-14_calib";"calib";"5185";"2022-06-14";"WD2";3,18309886183791;0,747705573139562;0,774783049025307;0,800903788251831;0,830198449857542;0,855909374062525;0,876241137511932;0,892846867971571;0,902255446642626;0,907735707009287;0,911920523638909;0,915434034864719;0,919416381490472;0,923373192451332;0,927081194987379;0,932028390618103;0,936431755455062;0,940194234834489;0,944114380443903;0,947705197829276;0,951497448305927;0,954016554873911;0,956362697313652;0,958753918897568;0,960179654162137;0,961236413702114;0,961982299765768;0,962871703192255;0,962611746105552;0,962257400559406;0,961663011555702;0,960854877288534;0,959589169678283;0,957982874081177;0,956216622443848;0,953657586175819;0,949379010283054;0,941253459630686;0,926543294007078;0,911937091925201;0,899921130004885;0,891187645677728;0,886812059726334;0,884843595625007;0,883878730760311;0,883194917950368;0,882258166919081;0,881999839685073;0,882525327994419;0,884064790180666;0,886228968958813;0,888656941148177;0,891246155545088;0,893661590460517;0,895802988149559;0,897722147090368;0,899272197864164;0,900460637778858;0,900905755440888;0,900908221713788;0,900319956547984;0,898487615254873;0,895511293023851;0,891409556659987;0,88626925733427;0,879524905998285;0,871024941042013;0,860274120848221;0,847419616176392;0,833163241327194;0,817648866635265;0,802131052709822;0,787765932501461;0,774045677352363;0,759089251778032;0,740221189357834;0,71306173930979;0,672900988227018;0,617762498796783;0,552360197089851;0,487787155522645;0,433677561154914;0,393617571756884;0,366440193346827;0,348854306657862;0,337790993505281;0,331296977592613;0,327936318602661;0,326807943546646;0,327032886908259;0,329185979622944;0,333820541556751;0,341211578702518;0,351543574732592;0,36371218026096;0,377190251585513;0,391468268534858;0,406378864415407;0,42157530308029;0,43708852537676;0,452426532775176;0,467349156295855;0,481930985141686;0,496212067337573;0,509807760638538;0,523023689200768;0,535606959450392;0,547233685827583;0,558396904264097;0,568806437605409;0,578349846754427;0,587313383103411;0,595825463236532;0,603609870171929;0,610791678196158;0,617390427273228;0,623247448045294;0,628624890414819;0,63331714045578;0,637486791855449;0,641339443999289;0,644504303526516;0,646935107949644;0,64873817958456;0,649835882286904;0,650475786927992
"5189_2022-06-14_calib";"calib";"5189";"2022-06-14";"WD1";3,84801284631071;0,713221642099036;0,741370522743136;0,767361786879299;0,797270437799396;0,823876717559088;0,844658250952746;0,86178877113494;0,870995621911438;0,876660620217061;0,880196018202659;0,884268947578118;0,887972164932006;0,891846560926456;0,895665347367985;0,900353557313669;0,904971130509495;0,909145893285588;0,913822488949582;0,917826992243102;0,921463282656302;0,924542290475055;0,927172108598386;0,929366135442154;0,931295291409414;0,932713476648008;0,933893243092266;0,934343005124673;0,93424810748753;0,934079937343789;0,933482716054148;0,932551527351643;0,931412251930648;0,929943461302828;0,928045778454187;0,92536993763656;0,921017081596872;0,911977194674041;0,895171613974286;0,879781861323816;0,867564403975818;0,858508238270393;0,853871946979505;0,85171678482236;0,850601480846715;0,849650289699137;0,848522456635803;0,8482683889902;0,848854954302292;0,850488886099915;0,852654423063864;0,855113862048181;0,857920428323546;0,860496694811254;0,862793838822453;0,864836563537983;0,866522618718509;0,867894966819204;0,868400107800547;0,868292136316509;0,867526984793922;0,865820228546682;0,862554190984394;0,85808282825655;0,852589121365546;0,84540951587719;0,836375104655287;0,825041113773003;0,811376841062426;0,79622924589077;0,779944364419155;0,763653071706329;0,748698539432278;0,734439308041025;0,718983565100282;0,699623731729607;0,671807991116746;0,631009576644256;0,575783111837532;0,511267471258405;0,448641877856704;0,39696081838769;0,359212169471953;0,333685436946893;0,317184230896862;0,306765193831075;0,300633746769533;0,297397666713181;0,296180594218673;0,296260305502809;0,29816619821878;0,302386018738248;0,309108536650618;0,318495919090496;0,32979094205368;0,342137287108992;0,355397744959396;0,369271939568482;0,383560416862532;0,39813213822965;0,412653495245001;0,426855206421468;0,440867022737378;0,454625793163581;0,467775474298456;0,480582685411484;0,492843022663593;0,504253935968662;0,51521512731909;0,525444238615103;0,534911916697695;0,543832586543875;0,55233507735329;0,56011779754574;0,56739669591491;0,574012930352449;0,579980710006091;0,585455883792787;0,590309044740976;0,594620421285539;0,598472380981996;0,601753029810826;0,604356776065548;0,606297746929859;0,607518181899873;0,608254438746147
"4992_2022-06-14_calib";"calib";"4992";"2022-06-14";"WW";5,05051686078281;0,669975045048647;0,701492880325217;0,731628652434694;0,765937094369625;0,796626328258764;0,819937130333456;0,840649685781264;0,850531866138975;0,854110722876519;0,857894390999014;0,861461429536989;0,865691048257186;0,870560452429644;0,87644045327167;0,881788884404122;0,887172457654452;0,893221652559739;0,898732091519371;0,903447297025705;0,908503581009977;0,913284813389447;0,916422200274685;0,919121653459844;0,921659562889844;0,923277234236154;0,92468087521913;0,924976378920636;0,924967487140489;0,924900634542373;0,924071070793776;0,922724170838409;0,921162143491662;0,919259038545012;0,916814635965895;0,913364428576368;0,907548281548896;0,895637873943668;0,873623375306609;0,85348537090099;0,837555287039052;0,82595086088283;0,82005997214363;0,817380014212728;0,816101754257017;0,814967085186221;0,813806188282314;0,813439639116558;0,813829193561108;0,815695900260778;0,818461500228894;0,82155546825623;0,8247871763219;0,827838596838213;0,830740644177859;0,833255050464967;0,835365684054614;0,836785192861665;0,837420155981798;0,837174389885259;0,83581704471525;0,833561666761381;0,829495846090077;0,823779816704499;0,816537697291772;0,807475033930757;0,796070594324615;0,781932129528788;0,765100137920665;0,746438509639112;0,726786059991514;0,707546470965148;0,690004596372375;0,673253852166169;0,655500480557975;0,633532304191202;0,602613207023461;0,558455223186736;0,500794334471766;0,436235244914645;0,37611149524933;0,328325613983851;0,294420972616838;0,272139341877092;0,257979538748804;0,249163734492986;0,244132057169426;0,241596390078458;0,240594188257317;0,240699389052081;0,242334208341211;0,245853369848136;0,251472077905834;0,259499177746463;0,269321224449996;0,279987460789556;0,291663492099918;0,304049830323879;0,31686408953942;0,330039556996694;0,343392073715121;0,356477216843809;0,369712020959038;0,38263993549901;0,395190925665364;0,407528967071514;0,41949770434478;0,430668221643788;0,441483575475166;0,451687734497313;0,461074513796912;0,470085299275578;0,478683584375039;0,486531564643891;0,493879388890562;0,500616134557179;0,506668431505957;0,512322997395133;0,517301512357767;0,521705942609443;0,525388124367608;0,528430082645932;0,530932357808104;0,532751840220698;0,533929983426554;0,534774574144569
"4994_2022-06-14_calib";"calib";"4994";"2022-06-14";"WD1";4,25827892183649;0,663263568226646;0,692718189954021;0,722027781526627;0,753236341984291;0,782861101426608;0,805423608654469;0,822466257251314;0,832011058051241;0,836849325642311;0,840114029045042;0,844061138895235;0,84809351069573;0,852638881394;0,857711159416776;0,862837435588426;0,868718926817365;0,873621454726483;0,878343502173669;0,883329841890424;0,887840919925928;0,891794617613902;0,895219674394734;0,897862285574295;0,900099630085904;0,901634484856117;0,902880249627894;0,903807049632029;0,903566420323085;0,903197585441628;0,902698110028984;0,901440534254232;0,899629478183457;0,89772011151279;0,895387138073039;0,892356187670545;0,887030721365861;0,876351459888144;0,857206073010741;0,838492443008731;0,823226100249129;0,812148379618916;0,806538776275769;0,804174213726943;0,803033191712893;0,801900138432177;0,800891690367063;0,800615625381585;0,801116346861533;0,8030171698314;0,805639321125249;0,808581153465659;0,811685256773896;0,814870027111735;0,817618444606212;0,820015469065164;0,822023973066612;0,823521524133955;0,824285610938088;0,824251136985033;0,823244702404852;0,82106056191242;0,817491068041242;0,812410367720993;0,805900258466431;0,797529244258413;0,786949989925043;0,773825257452843;0,758197718106966;0,740867394751705;0,722605938042019;0,704513670760399;0,688019432941828;0,672387489364339;0,655563243357003;0,634522706564926;0,604943596280399;0,562315177220168;0,506165362624939;0,443010460680726;0,38360076377229;0,336158304603426;0,302530017380134;0,280261156754857;0,266260491797694;0,257626843025976;0,252583139351013;0,250083405331138;0,249156416731661;0,249364174228449;0,251105350168211;0,254958119732431;0,260907662637712;0,269141142828464;0,279139599274981;0,290191250106253;0,302155956252268;0,314820187478033;0,327891912871766;0,341406868109706;0,355021092465383;0,368461972053754;0,381767870186109;0,394930305250857;0,407631369847151;0,4201879900067;0,432186906344918;0,443527254910346;0,45439029847164;0,464674002991539;0,474182795380986;0,48323479062358;0,491737622671058;0,499679395543734;0,50715930039418;0,513886111401825;0,519945675903473;0,525608083839156;0,530564851058773;0,534996703507899;0,538927014618831;0,54226969286386;0,544890055476157;0,546833475385042;0,547948997980736;0,548537879891862
"4996_2022-06-14_calib";"calib";"4996";"2022-06-14";"WD2";3,62165914946891;0,664753131532924;0,693863764081534;0,721887854714779;0,7515909582447;0,78055664911379;0,801975979605565;0,81782692223041;0,826525170975973;0,830379550310563;0,833516609184617;0,837685186956933;0,841267588012268;0,845398399703226;0,850096359076803;0,854955246140463;0,860696618216139;0,866016015634374;0,870846436029888;0,875885751167907;0,88044445424346;0,884376613363544;0,887578844027689;0,890324762207068;0,892724841691068;0,894298192313195;0,895579716545872;0,896242033859164;0,896107551637098;0,89602336226546;0,895523383677223;0,894312575218996;0,892828319984146;0,890944547850054;0,888758122891695;0,885960340742672;0,880785260195977;0,869981811865664;0,849937108831574;0,831907622650353;0,817954522726348;0,807799691458597;0,802912502954026;0,800680666380707;0,799759638709564;0,798995585534248;0,79813804175965;0,79806012476588;0,798913105123809;0,800589680062113;0,802820512751293;0,805355493437906;0,80790944314009;0,810666480507935;0,813043996837482;0,81520169649518;0,817133671136548;0,818474940345737;0,818921541196099;0,818792329294683;0,817778659982605;0,815585407170924;0,811981171164804;0,806930744613243;0,800584767308367;0,792391993191029;0,782013934213696;0,769267211878211;0,75406731570281;0,737402650122978;0,719858154711031;0,70248622375851;0,686663361607867;0,671822075177532;0,655840052840736;0,635757976586878;0,607523900641881;0,566774329447971;0,513142536361328;0,452464399913104;0,395256942067727;0,349360977366206;0,316504949689181;0,294718996093622;0,280834925187649;0,272318196366981;0,267250795396159;0,264691307557317;0,263840467795862;0,263959975694505;0,265721737833731;0,269512450899081;0,275387512582445;0,283606995179981;0,293453330673377;0,304288979375108;0,316008730995047;0,328351905736458;0,341090457312068;0,354190797740326;0,367367011869538;0,380355401112997;0,393256854627474;0,405941048096126;0,418155563167963;0,430221531261376;0,441718168317233;0,452617253889805;0,462994565018172;0,472787244762821;0,48188592685676;0,490493436767413;0,498647022234324;0,506133515351325;0,513195139169821;0,519579426127189;0,525319282545503;0,530677869809681;0,535390930227486;0,539632899535629;0,543361261884105;0,546591480981103;0,549219210780586;0,55122553639642;0,552520656144542;0,553412011244115
"4922_2022-07-21_calib";"calib";"4922";"2022-07-21";"WD1";4,5723446762045;0,756928897097624;0,7852246673946;0,811794037641016;0,839022299523482;0,862176092252932;0,881867592509028;0,897363673068484;0,906369218781173;0,909659680270178;0,913384449640902;0,916149605261897;0,919204215266604;0,922910141776366;0,927082554026929;0,931325175643871;0,934604995133109;0,938608480523996;0,942533525171596;0,946097750694191;0,949195742626696;0,952047141641824;0,954521141439634;0,956435206137783;0,958179134630781;0,959148972352824;0,959905711801889;0,960107543589892;0,960438340962681;0,960190238831366;0,959466763986092;0,958313108146453;0,956955855842398;0,955368701237693;0,95344674177159;0,95077923205765;0,94638084868917;0,938269209468859;0,923763561408463;0,90842573168172;0,89525420263554;0,885791644076345;0,880725441738634;0,87790813819653;0,876280643078973;0,874828758026503;0,873303144933786;0,872585014574304;0,872756409060032;0,874293719014328;0,876846824710692;0,879768982717264;0,882915558605056;0,88564958174995;0,888119543356908;0,890300992684947;0,892061600056889;0,893351109223355;0,893962180782466;0,893867011973431;0,893028963555771;0,891417834839943;0,888441044911766;0,884253183853185;0,878902819405077;0,872152332510613;0,863530788573505;0,852606522408887;0,839587113241229;0,824867508023651;0,809020811772168;0,793144864700415;0,778285326118456;0,764058851399911;0,748837027415501;0,729716144822419;0,70260449851371;0,66273209259949;0,608341567903491;0,544220397562919;0,481061225573742;0,428005724891009;0,388745548816739;0,361872478720037;0,344418115184557;0,333342802121811;0,326776026514843;0,323390839969722;0,322038686261872;0,32223809969778;0,324268141504556;0,328590318491209;0,335471334921632;0,345382056881792;0,357075145146291;0,369737715749765;0,383432313904332;0,39762706319765;0,412157265523676;0,426891658307045;0,441509663913779;0,455739769159108;0,469705432826717;0,483373285939866;0,496321712161009;0,509035466269716;0,521179966494955;0,532283394213556;0,543001715927806;0,553183014184791;0,562506215587511;0,571380439176024;0,579803653895282;0,587530037783095;0,594833237775906;0,60148684610811;0,60751355857971;0,613055730268715;0,617905239303961;0,622141769476408;0,625791491032383;0,628907596422132;0,631343254194783;0,633000566314957;0,633628376777829;0,633648097238827
"4924_2022-07-21_calib";"calib";"4924";"2022-07-21";"WD2";3,28778744662724;0,784246537825999;0,809934003290221;0,832702269380444;0,857149764315674;0,878690079100207;0,896294040272388;0,910333186999586;0,918131327936957;0,92207836809175;0,925786723351203;0,928735431583836;0,931624910425506;0,935229765471573;0,938565124584263;0,942506324611308;0,945274752667751;0,948736072060964;0,952287625886097;0,955260167172831;0,957891990483114;0,960094122296247;0,962272916513342;0,96411954234571;0,965467767781859;0,966351970716359;0,967191492464046;0,96726739237866;0,967407877460555;0,967169374958136;0,966537563294666;0,965677568285662;0,964724110315452;0,963417789842064;0,961667008172774;0,959393107782325;0,955651543594769;0,948722170991166;0,936437219709861;0,923279338145917;0,9122401109591;0,904509576680006;0,900530737357235;0,898614772059558;0,897684908069999;0,896757533324626;0,895706692406744;0,895479156412228;0,895721874629661;0,896917846677484;0,89898071004738;0,901145950645559;0,903616718688391;0,905896902848145;0,907825637930687;0,90953832343112;0,911059622162637;0,912038396685298;0,912544504478727;0,912418550374444;0,911565412419199;0,910088848391587;0,907442631503606;0,903816129844402;0,899124072735639;0,893121793469368;0,88550157365385;0,87588259739247;0,864317788641213;0,851215160082678;0,837154824093203;0,822889609109454;0,809506528330495;0,796637872531455;0,782694895422624;0,764983832226575;0,739481023377939;0,701532963696355;0,648737727285268;0,585324859176296;0,52164843519071;0,467466949273518;0,426949701839873;0,398948676129873;0,380863882676764;0,369317463857549;0,362598081755232;0,359171510921804;0,357938436075082;0,358349209426141;0,360828263153557;0,365849867561654;0,373654229168716;0,384634884761168;0,397465400257493;0,41137532151837;0,426267079551526;0,441678870048399;0,457199811049117;0,472926384922283;0,48840430413346;0,503290285050852;0,517883399405311;0,532086606394034;0,545388114883591;0,558438766336205;0,570772543002094;0,582060011938087;0,592900922066464;0,603150190819774;0,612458837298745;0,621270916419976;0,629571777061066;0,637153475306993;0,644297421584193;0,6507433386372;0,656578633041701;0,661933826496227;0,666643060485547;0,670643331688836;0,674077830599138;0,677041389092455;0,679461658304447;0,681278136916243;0,682179857069342;0,682541450961456
"4928_2022-07-21_calib";"calib";"4928";"2022-07-21";"WW";4,4294589050731;0,713589579609284;0,739918437728096;0,764417567913841;0,789921687088691;0,812731855119287;0,831150329678487;0,845246512869645;0,853319265177365;0,857031958588545;0,859930172287619;0,863039103500463;0,865854264620053;0,869311488439796;0,872765375744989;0,876782899068542;0,880489102124622;0,88421314858002;0,88801430828549;0,891416545431533;0,894666129445409;0,897541544820278;0,900078132698468;0,902155551473537;0,903789099156455;0,904924983084231;0,906256797977786;0,906549973311829;0,906560420748783;0,906470652275308;0,906272261962513;0,905491861587908;0,904279935568482;0,90305684319634;0,901468670907944;0,899257798650053;0,895303672395909;0,887012870067409;0,871557875662998;0,85806824662889;0,847505216297556;0,839070620300091;0,834488161608881;0,832291732778323;0,831013730779828;0,8298699764328;0,828660246091235;0,828353990812899;0,82870329431593;0,830121055417835;0,83237026365663;0,834949934516638;0,83769520369223;0,840097339430264;0,842441183463761;0,844576069016719;0,846264951528547;0,847460716998918;0,847965800494513;0,847965266142722;0,847393621822186;0,845924127967714;0,84321347002322;0,839259593329786;0,8343795893283;0,827962497783247;0,819772308006625;0,809556431968041;0,797124944339683;0,783214721633047;0,768319712871236;0,753234452333761;0,739284937273456;0,725749608074044;0,711299357849007;0,693285362926017;0,667491029841428;0,629390287839509;0,5773640092853;0,515919237244269;0,455299122335279;0,404534957659752;0,366861166545305;0,341021748160377;0,324048131293368;0,313176052325037;0,306592908085854;0,303158815843539;0,301707592809624;0,301817779143992;0,303708376639093;0,307905449676696;0,314552585191655;0,323885980213845;0,334946665857987;0,347105018723321;0,360153136892685;0,373896010370578;0,387830697757176;0,402080467812206;0,416231997327798;0,429927959600515;0,443457355730624;0,456625454458094;0,469211257765501;0,481469634610588;0,493152904385207;0,503940293602789;0,514322372029997;0,52413627428689;0,53318722130816;0,54176218093962;0,549931582323918;0,557490867510384;0,564634132987815;0,571162209748785;0,577037493386399;0,582487309944497;0,587222228425289;0,591388675581704;0,595126956278604;0,598299788244193;0,600803349842951;0,602590238104207;0,603544873336085;0,603889746874237
"5010_2022-07-26_calib";"calib";"5010";"2022-07-26";"WD2";3,57214427828476;0,702522623376888;0,72747998661649;0,750409825685782;0,777039756802951;0,800359098964671;0,81747600784989;0,831336436476408;0,838970752944381;0,842603003258403;0,844473104355376;0,847400298150976;0,850954570800312;0,854077726821723;0,857774369612565;0,861726336691203;0,865536616975962;0,869656806952932;0,873377729416468;0,877261391468022;0,880698225981799;0,883675856974051;0,886254720013264;0,888438575038327;0,890087676524053;0,891579099070167;0,892772746772456;0,893380537781695;0,893772702510205;0,893758276245307;0,893093257710633;0,892319802583392;0,891489728628653;0,89023740704603;0,888871113748675;0,886647954354423;0,882722783986668;0,875475350237387;0,863573419448177;0,848606905483167;0,834819312036851;0,82537934747694;0,820440493390751;0,818287837076121;0,817295692726767;0,816359958509743;0,815397772579884;0,815064372537674;0,815447445662384;0,81711187471399;0,819248278755004;0,821439581623757;0,823879461441712;0,82629221531508;0,828378832007856;0,830293961376178;0,831881969779896;0,83312718400889;0,833885882928;0,833869023594854;0,833023335962005;0,831245924545571;0,82845538375733;0,824595679844641;0,819513828554412;0,812766109412092;0,804287595864597;0,793901336376919;0,781601222696766;0,767815624322793;0,753358591193085;0,739026210919319;0,725609728420709;0,712642363040887;0,6987760739872;0,681412529249609;0,656783848250762;0,620535013187418;0,571353625318263;0,513928045579789;0,457603804950399;0,410756803173383;0,375973166786234;0,352217317137842;0,336757795411909;0,326793637184691;0,320812868798284;0,317577467301683;0,316425069646943;0,31641658519342;0,318245882316658;0,322492926602015;0,328875768711712;0,337557136531013;0,347863825842387;0,359096329060199;0,371264462424814;0,384097932440377;0,39712349232851;0,410479307513792;0,423816420056754;0,436793617380114;0,449581217133126;0,462057936620227;0,473980275911556;0,485703639091589;0,49683134463202;0,507105157119474;0,51698569058447;0,526331116650243;0,534871312843264;0,542999595858028;0,550647423037241;0,557737885711672;0,564364783103998;0,57039323786706;0,575700779698568;0,580665112194778;0,585095920366228;0,588882331838632;0,592373298042354;0,595253112891945;0,597522445383362;0,59925720057605;0,60023246696831;0,600741036571385
"5012_2022-07-26_calib";"calib";"5012";"2022-07-26";"WW";3,40803784807445;0,763499045058602;0,788535101318282;0,810611488272638;0,835849793050427;0,858361382198393;0,874707417208824;0,888964585330515;0,895975257315311;0,900082259967173;0,902898859371971;0,906223702081934;0,909337503113248;0,912304098966953;0,915836649419837;0,918797395845323;0,922180108673819;0,925923630855689;0,92912298722291;0,93246270834209;0,935184185783393;0,937591551768842;0,93977805916764;0,941800069617207;0,942909154041842;0,944077023970355;0,945070196512905;0,945529622890316;0,945649930607864;0,945595116037554;0,944900279612446;0,944099512188647;0,943372571119566;0,942075214320979;0,94059029336562;0,938395393105845;0,934920237838316;0,928700975723001;0,918334041995156;0,905174678911276;0,892906268451574;0,884519777905564;0,880051057286834;0,878001464455191;0,876812888211751;0,875779443143633;0,874689374248415;0,874479920362918;0,875017623883462;0,87627466764418;0,878346795925725;0,880449415787822;0,882770007650753;0,884956451064153;0,886762279588596;0,888557939342217;0,889963648310683;0,89101095571619;0,891633166337094;0,891609089088981;0,890862852594131;0,889318517174339;0,886820675042199;0,883363018413928;0,878870596376662;0,872785543185925;0,865087676096123;0,855655265342852;0,844440718525996;0,831712929024657;0,81817405183682;0,804677947817255;0,791866232131218;0,779355782560685;0,765967834696489;0,749152981617218;0,725055284221174;0,688945027251321;0,638859120513413;0,578996620381676;0,518980575194879;0,46792862531756;0,42942796522151;0,402776208194724;0,385247453801523;0,373949287901896;0,367074964687885;0,363407233237602;0,362075877247604;0,362149025528712;0,364239177063836;0,369097599572785;0,376410738437981;0,386289694943641;0,397902595618412;0,410555299399057;0,424121418560973;0,438459846401314;0,452823499656857;0,467523857882535;0,482048837181019;0,4961720195596;0,509940641237952;0,523353149223382;0,536078396330283;0,548509468273868;0,560286022658223;0,571095707407754;0,581411955404393;0,591190813632761;0,600169821837148;0,608680770923629;0,61673007428019;0,62413884130369;0,63112370578893;0,637479119961168;0,643145702521606;0,648382105865516;0,653014939484698;0,65695424102438;0,660552861872507;0,663604692488808;0,666010221873965;0,667775964167466;0,668714891809863;0,669065325030801
"5018_2022-07-26_calib";"calib";"5018";"2022-07-26";"WD1";3,03172482707495;0,752741188227208;0,77753457526667;0,800918395575646;0,827348726654417;0,850294307561198;0,86699680537527;0,88163726932581;0,889596000534575;0,893099118546908;0,895704686484772;0,898813503610588;0,902170885226453;0,905072832589502;0,908444270595006;0,911879160290835;0,915841946157189;0,919488197525455;0,922632405393397;0,926103401426603;0,929092335524798;0,931684255375889;0,933764338026771;0,935770705098423;0,93731916032857;0,938384423258976;0,939327021057682;0,939607516703276;0,939742612031633;0,939676028859644;0,938963709228741;0,938020093318694;0,9370722812091;0,93567322543899;0,934214049224079;0,932064157126548;0,92832204686195;0,921692406683515;0,910740047843551;0,896912634170396;0,884154725426476;0,875322560375992;0,870684603101482;0,868650377247713;0,867684195115721;0,866745339246871;0,865765728363792;0,865584839278143;0,866091257955387;0,867534497609509;0,869453881509258;0,871544866719832;0,873811818603545;0,875853573438406;0,877742260740842;0,879580761606645;0,880996759875297;0,882105270372713;0,88269431907948;0,882648421512485;0,881815614947866;0,880102288148587;0,877483470144656;0,873788423668299;0,868980173590951;0,862576877615382;0,854489111529442;0,84451163054033;0,832675945970094;0,819293064843494;0,805044497139279;0,790863011414233;0,777460215851135;0,764428490541684;0,750490425243165;0,732961764766516;0,707901723610882;0,670506266800551;0,618854513864363;0,55737855572488;0,495999667041729;0,44412830480817;0,40521672748897;0,378375772226394;0,360789145691933;0,349558442265882;0,342831664353321;0,339249830371652;0,338024181210855;0,338209224058132;0,340445678874954;0,345352378313943;0,352757072873643;0,362701242927354;0,374438084618895;0,387200437629264;0,400925942507797;0,415341983793564;0,429891028407486;0,444745276004727;0,459429943093975;0,473648997027783;0,487612254235005;0,501128803928844;0,514003715969963;0,526566107300176;0,538467044143248;0,549408811703088;0,559891095905468;0,569782269376756;0,578895795536633;0,587551063858709;0,595739081260441;0,603331237656255;0,610516379039805;0,617087491875633;0,622932569365377;0,628407277712862;0,633270611953206;0,637383304093181;0,641091828939139;0,644294967212282;0,646896072490727;0,648913337264539;0,650207956806663;0,651063869525692
"6441.1_2022-07-06_calib";"calib";"6441.1";"2022-07-06";"WD2";5,33345898183507;0,715670482717465;0,745777217640084;0,774015562787934;0,803301979178282;0,829553443645014;0,849246627453131;0,86561873936921;0,873777806556763;0,877644188354143;0,880283307474238;0,883909940865996;0,887164511873699;0,891311671383215;0,895520009868613;0,900379352759241;0,905015033380488;0,909472786532799;0,913716362302576;0,917783938104661;0,921903485678861;0,925241120053125;0,927820867763593;0,93061915975821;0,932707839363022;0,934196849189866;0,935183493432128;0,936110954348297;0,93614205941007;0,935771759494097;0,935223489662156;0,934245455642434;0,932914266039104;0,931161514528657;0,929033635709498;0,926237454019794;0,921439635001027;0,911957140608774;0,89530279095213;0,878028379167252;0,863266653838406;0,852640148777941;0,846898730506795;0,844175483989162;0,842699321432632;0,841310484110054;0,839890981397775;0,83945769510736;0,839792077181251;0,84147245708608;0,844001467079055;0,846833150239672;0,849883952708339;0,852880965196848;0,855514043182722;0,85781203162509;0,859719800460482;0,860962778354159;0,861579347055768;0,861439638215917;0,86038390716643;0,858409972357731;0,855018005968355;0,850333106062992;0,844184460410143;0,836288658020901;0,826368293279091;0,813943611709359;0,799048400342584;0,782497153430445;0,764844684060134;0,747298199947315;0,730944318848593;0,715383675638986;0,698819091729576;0,678231573333275;0,649368558756361;0,607332681652301;0,551108349277618;0,486265324558672;0,424111439007493;0,373491082474367;0,336696268120509;0,312006956790779;0,296146396050273;0,286157828843077;0,280247834568569;0,277130384088693;0,275882757928481;0,275964081407231;0,27768049036521;0,281452499488519;0,287491689455118;0,29599223863209;0,306277244002447;0,317586282437497;0,329888851395936;0,342916946057652;0,356232249927847;0,369974886632903;0,383738009882347;0,397129173861085;0,410459395100793;0,423585600965471;0,436090429567125;0,448422201563745;0,460218284834654;0,47117452396905;0,481757757961551;0,491808727610787;0,501002985173281;0,509869454348955;0,51827125387201;0,525990958918221;0,533244126673522;0,539895019107095;0,54585366389467;0,55142814976844;0,55629069543257;0,560537587647826;0,564154133165043;0,567132690526426;0,569546815304899;0,571342106484892;0,572379598257249;0,572954042332206
