"Leaf_ID";"Sample_type";"NUMERO_PLANTES";"Date";"Scenario";"LMA";"908.1";"914.294";"920.489";"926.683";"932.877";"939.072";"945.266";"951.46";"957.655";"963.849";"970.044";"976.238";"982.432";"988.627";"994.821";"1001.015";"1007.21";"1013.404";"1019.598";"1025.793";"1031.987";"1038.181";"1044.376";"1050.57";"1056.764";"1062.959";"1069.153";"1075.348";"1081.542";"1087.736";"1093.931";"1100.125";"1106.319";"1112.514";"1118.708";"1124.902";"1131.097";"1137.291";"1143.485";"1149.68";"1155.874";"1162.069";"1168.263";"1174.457";"1180.652";"1186.846";"1193.04";"1199.235";"1205.429";"1211.623";"1217.818";"1224.012";"1230.206";"1236.401";"1242.595";"1248.789";"1254.984";"1261.178";"1267.373";"1273.567";"1279.761";"1285.956";"1292.15";"1298.344";"1304.539";"1310.733";"1316.927";"1323.122";"1329.316";"1335.51";"1341.705";"1347.899";"1354.094";"1360.288";"1366.482";"1372.677";"1378.871";"1385.065";"1391.26";"1397.454";"1403.648";"1409.843";"1416.037";"1422.231";"1428.426";"1434.62";"1440.814";"1447.009";"1453.203";"1459.398";"1465.592";"1471.786";"1477.981";"1484.175";"1490.369";"1496.564";"1502.758";"1508.952";"1515.147";"1521.341";"1527.535";"1533.73";"1539.924";"1546.119";"1552.313";"1558.507";"1564.702";"1570.896";"1577.09";"1583.285";"1589.479";"1595.673";"1601.868";"1608.062";"1614.256";"1620.451";"1626.645";"1632.839";"1639.034";"1645.228";"1651.423";"1657.617";"1663.811";"1670.006";"1676.2"
"4110_2022-07-13_HD";"HD";"4110";"2022-07-13";"WW";5,80880174520286;0,715503888254354;0,746486392768844;0,774828217915388;0,806490813593934;0,83358905623467;0,854671195599745;0,870977827619005;0,87920596248863;0,883206021341503;0,886108146970182;0,889301927436327;0,893319804274068;0,897284166259103;0,901869182860821;0,9063683435685;0,910725744560115;0,916301657800019;0,921025986622746;0,925039331994794;0,929432198655753;0,933241451892973;0,93588576227415;0,938443074659334;0,9407941350147;0,942466490812124;0,943409630543653;0,943834949089841;0,943748392707005;0,943454218359552;0,942846144117875;0,941669143167646;0,940172097604234;0,93832708493226;0,935948794616859;0,9328304103072;0,927715020527591;0,917805326130779;0,900794803659953;0,882320605896198;0,866104382704622;0,854543585248486;0,848151455178632;0,84515530428187;0,843501413912007;0,841929480269083;0,840431099888971;0,839754110880161;0,840126891310887;0,84195128108183;0,844532667210323;0,847651051759186;0,85081683963383;0,853838781620374;0,856598522029957;0,859144408031021;0,861209769160813;0,862559129151742;0,863254436227088;0,863202667494621;0,862212673159136;0,860107117243387;0,856686385100349;0,851794994563217;0,845350548786498;0,837066184934679;0,826559252222603;0,813567890681763;0,798211488527788;0,781051999128549;0,762985155622243;0,745102018444538;0,728391946230182;0,712490750856504;0,69556932603257;0,674720829721114;0,645649411808557;0,603721053733184;0,548089192182514;0,484584893390569;0,424090755125793;0,375014925150114;0,339550757336268;0,315743045979848;0,30041357911926;0,290803613615431;0,284929823228523;0,281901588078832;0,280639469558633;0,280539203174351;0,282129476846452;0,285827460710239;0,291613226784531;0,299581863615457;0,309287119148135;0,319966195272315;0,331592162011616;0,343961873831167;0,35670671762928;0,369858040082379;0,383031014945183;0,395916340799883;0,408761954996236;0,421387050847009;0,433539582361796;0,445461501469966;0,45695205952524;0,467626337032373;0,477960844822065;0,487761865041522;0,496789608895389;0,505451205881119;0,513658543242799;0,521269639014638;0,528548027837896;0,535085354678016;0,540943410521046;0,546437622711196;0,55125819427408;0,555467250672393;0,55912384217448;0,562169504960384;0,564610167409594;0,566358750498776;0,567162780188644;0,567344713512397
"4111_2022-07-13_HD";"HD";"4111";"2022-07-13";"WD1";4,69683920946749;0,707596733313669;0,735179526296102;0,761134980230217;0,789841270956085;0,814787305525861;0,833889362658826;0,848861998044568;0,857219987206217;0,860476952582309;0,863426318736194;0,86598087399103;0,869516391778923;0,872853076115259;0,8768055101738;0,881040299995059;0,885119212880666;0,890150324821738;0,894124350122935;0,897478316063352;0,901458543061853;0,904829587580452;0,907286213584932;0,909667821442347;0,911727284065672;0,91308982551992;0,913979554971874;0,91447002367582;0,914409865531424;0,914115760598879;0,913592454896127;0,91266227908637;0,911307427898212;0,909772054225975;0,907822265089649;0,904993459541696;0,900362002504028;0,891306850816086;0,875477959881019;0,859107489741219;0,844902522283005;0,834391948843052;0,828542678989902;0,825610241943421;0,824019259476011;0,822582417219767;0,821048765376136;0,820342601756272;0,820624908252173;0,822081284682889;0,824445247447596;0,827310462848655;0,830144480725273;0,832963991185771;0,835554877883302;0,837872289868664;0,839726508251859;0,841022050919915;0,841582077556374;0,84148367816122;0,840606066294049;0,838772344396377;0,835637289669573;0,831178860267353;0,825414094313329;0,817905801897296;0,808375816241833;0,796595137375616;0,782660158117215;0,76703478293807;0,750508317843029;0,734115042001422;0,71870018561999;0,7040480499874;0,688390413107034;0,669013633824649;0,641953552736843;0,602840385318281;0,550532128368085;0,490084495463904;0,431632148302187;0,383456744794713;0,348080171298553;0,324003547749347;0,308406121411725;0,298530823040892;0,292522395327183;0,289305364048024;0,287981057210988;0,28797345645091;0,289534191092219;0,293306115093632;0,299159962894873;0,307358225077534;0,317118925386222;0,327845825896797;0,339454379089548;0,351836596205513;0,364462768501615;0,377434570359151;0,390399782937124;0,402997223158901;0,415469989833678;0,427745224048169;0,439460542858166;0,450941788607793;0,461975695385079;0,472203397422897;0,482065349018771;0,491406511699029;0,500060825953454;0,508312717552387;0,516138040781331;0,523398497839013;0,530314833070026;0,536528726519234;0,542168347440494;0,54748393252457;0,552076708009064;0,555947500930721;0,559110887500123;0,561831295002919;0,56416325474602;0,565800989014414;0,566471340160344;0,566605299959907
"4113_2022-07-07_HD";"HD";"4113";"2022-07-07";"WD2";5,19057321070368;0,714495517232857;0,744436626373251;0,771232092683362;0,801225850281582;0,826290502197552;0,846559381752145;0,8621135121303;0,871407741744211;0,874593683726178;0,877752027664718;0,881050500269538;0,884605567860205;0,888821344826577;0,892912399836842;0,897428591511995;0,901785001836663;0,906387404124088;0,910491719703015;0,914681636303105;0,918991857809206;0,922489460843014;0,925162545452498;0,927587920890849;0,929672839207414;0,931016874084476;0,932212786416925;0,932712612437236;0,932920553776474;0,932837129075709;0,932323256108054;0,931399579040799;0,929991923974732;0,928318749586087;0,926289591521776;0,923425932709677;0,918671458063591;0,909534174346809;0,893270129493039;0,876215902484094;0,861768194129634;0,851135034927597;0,845281089666219;0,842388242130843;0,840689409861156;0,839234604988735;0,837884713267479;0,837246139900239;0,837562086113054;0,839374081924653;0,842093996956788;0,845268647595816;0,848556203201295;0,851552844306412;0,854260775964766;0,856680210377941;0,858630783058081;0,860021497699811;0,860684551982826;0,860554710704386;0,859565474478511;0,857712282657242;0,854476083642649;0,849867234567178;0,84384450418065;0,836042128978;0,826248289704896;0,814088501377672;0,799635794053199;0,783467819919147;0,766279167668112;0,749173591704009;0,733200006678043;0,717859840439386;0,701438331644264;0,68121830574007;0,652818861066888;0,611748630827688;0,556839498810974;0,493708524283332;0,433046922299446;0,383494335730865;0,347481204374323;0,323266985884344;0,307684841623289;0,297994147677859;0,292210350815353;0,28920055887832;0,287975159605885;0,288087689769705;0,289865848559327;0,293724933422211;0,299776883894819;0,308328725834814;0,318445528785238;0,329648518251434;0,341799256459187;0,354691967211081;0,367901543791733;0,381435388962986;0,395065324433748;0,408333374114904;0,421478092713839;0,434446818782141;0,446815030996087;0,458964491825354;0,470599886434645;0,481394880747809;0,491814458821681;0,501670651746006;0,51076136968355;0,519444251189385;0,5276883614337;0,535223543184712;0,542377566933295;0,548920260019431;0,554714524345926;0,560151719933514;0,564870669664215;0,568960648612987;0,572487103481261;0,575375621295347;0,577641820780802;0,579149536283487;0,579716492934969;0,579663591464836
"4115_2022-07-07_HD";"HD";"4115";"2022-07-07";"WD1";5,68147779072935;0,682098748069686;0,712557182989223;0,739949414445748;0,770667513927579;0,796689883421117;0,816713493800537;0,832054332512728;0,841223477805718;0,84413404002929;0,84736891864214;0,850080206346379;0,853797700243628;0,857752174914001;0,861985238040393;0,866652957474987;0,871204408924804;0,876149587894162;0,880779909861338;0,885216894185539;0,889450387402226;0,893059389614604;0,896157157720239;0,898898302568607;0,90121208137463;0,90270415186087;0,903723946468139;0,904281352555956;0,904507457445019;0,904322777684827;0,903764941578795;0,902849717897375;0,901290387804522;0,899460812979041;0,897443992947527;0,894449275727837;0,889223647496675;0,879174323322868;0,861047957675765;0,842882255519942;0,82774163054721;0,816199869094259;0,809751094396653;0,80658146906147;0,804719577968591;0,803032342370389;0,801358296876153;0,800499261426661;0,800740213277853;0,802637985733705;0,805563044086183;0,808854295530851;0,812348652783931;0,815491343558327;0,818330002673928;0,820904671915615;0,822981029101329;0,824483426562919;0,825124741117268;0,825004261221198;0,824001170317913;0,821951080445676;0,818502823923228;0,813617418285441;0,807195636025278;0,798968611740407;0,788623044738736;0,775771296759738;0,76063851868675;0,743755094708282;0,725872250471063;0,708251259097661;0,691908941710391;0,67635069115518;0,659707267914058;0,639374524539893;0,611107980919701;0,570654857031818;0,517324780256139;0,456902217762665;0,399686937465695;0,353631882999189;0,320436274774461;0,298276953479223;0,28398641122242;0,275033262309975;0,269684586097758;0,266836236275966;0,26562021751681;0,265561295819279;0,267038760617281;0,270347200892186;0,275651915186018;0,283138736402672;0,292116007194995;0,302101290875935;0,312963581572106;0,324571843138573;0,336526485528824;0,348854990313948;0,361313837704893;0,373485895521738;0,385620387303151;0,397637135084669;0,409085100017271;0,420403105519223;0,431345357132723;0,441510464267107;0,451343595955572;0,460694743826683;0,469326403165398;0,477582528137137;0,485442729366762;0,492685073631025;0,499533952570508;0,505811409461073;0,511380033839275;0,51660006299614;0,521185000192486;0,525163315892217;0,528600373474477;0,531460005958229;0,533697981146236;0,535242808159385;0,535915636867491;0,535938607682469
"4116_2022-07-07_HD";"HD";"4116";"2022-07-07";"WW";4,93451059115139;0,728611266399396;0,758901384335798;0,787511087060871;0,81791921894904;0,843934330699121;0,864169810480779;0,880608772222718;0,890185326410726;0,893310732606235;0,89652589193015;0,900139113266344;0,903798216779238;0,90811655464037;0,912201490515599;0,91670011404995;0,921124622872547;0,92589829189641;0,929996739877145;0,934060754301458;0,938312460854548;0,941814073750599;0,944507875826733;0,946962862078958;0,949082965875637;0,950215100038142;0,951151021184598;0,951695110576477;0,951776947404844;0,951527930148728;0,950842109852305;0,949755105404286;0,948181900146509;0,946419571530336;0,944235267134356;0,941115065729534;0,936149303354376;0,926786527601742;0,910348417020956;0,892444707106939;0,876975862546441;0,865767282377219;0,859594090866948;0,856711745501492;0,854989696140942;0,853407330021321;0,851955713945616;0,851286909426498;0,851638476469483;0,853479290892691;0,856117483445156;0,859234215849755;0,862580923569458;0,86568083216633;0,868445488368174;0,870858672704514;0,872769217349048;0,874207898859479;0,874822839581119;0,874697108006955;0,873663980869825;0,871605825733102;0,868211639971043;0,863375977970181;0,857011233335805;0,848855161964463;0,838634236466333;0,825897602502974;0,810818280021501;0,793874606129353;0,7759524354441;0,758146601852667;0,741541931607043;0,725584467041114;0,708560103466598;0,687663439379925;0,658343801586914;0,616018614543356;0,559620892200716;0,494974271256966;0,43305418760748;0,382743820619962;0,34625954189625;0,321869293252179;0,306122008589848;0,296356246359179;0,290568114714372;0,287578141266255;0,286396978211162;0,286534520657643;0,288338584772974;0,292210334010679;0,298301895791129;0,306810298725407;0,316992103567736;0,328243591880559;0,340457653748368;0,353462251204732;0,366780749164472;0,380436428190908;0,394153171122713;0,407547588710333;0,420835787388214;0,43393930211788;0,446455264166451;0,458751668106951;0,470557163145806;0,481517701900294;0,492089314989106;0,502146730423473;0,511412923802613;0,520280027160268;0,528712833772707;0,536472257151843;0,543835154025325;0,55056838925008;0,556555942857124;0,562171872219934;0,567087643092017;0,571322528639409;0,574912132868151;0,577935240739916;0,580328294017995;0,582015182998376;0,582809181941473;0,582977064160311
"4117_2022-07-13_HD";"HD";"4117";"2022-07-13";"WD2";5,99837296630788;0,693337557399603;0,722513764293447;0,748962312658273;0,778469182905018;0,804795870196285;0,824871621655299;0,840297473017474;0,848260678853231;0,852396678241925;0,855277348621984;0,858658597329366;0,862352681735271;0,865866780521772;0,870036433667864;0,874643853079507;0,879130451254049;0,884183946899466;0,888786740421481;0,892549035465;0,896888901686405;0,900411848600306;0,903019450348269;0,90545582856895;0,907690706578305;0,909558321327889;0,910463833243774;0,910923096327035;0,910966569249585;0,910820813706056;0,910353658037085;0,909326606326194;0,907974086565493;0,906413970869509;0,904421429803943;0,901514383835442;0,896695225845769;0,887367554521609;0,870931995684675;0,854000418747311;0,839392831967446;0,828767637042853;0,823015515067446;0,820194292993832;0,818615407849415;0,817339629945091;0,816014941618935;0,815368587608599;0,815684630270362;0,817328485426871;0,819781860780219;0,822772357497634;0,825823265746546;0,828724131204873;0,831381527680134;0,833768040089749;0,835742817663252;0,837109627500835;0,837650901265942;0,837573086195925;0,836729938432457;0,834793597582498;0,831501342475264;0,826829915059063;0,820846427231136;0,813105265682735;0,803262686936881;0,79106896889829;0,77664181270499;0,760512437845927;0,743447815369888;0,726591266616283;0,71072961594095;0,695653336566614;0,679551704217594;0,659547653539923;0,631576083875346;0,591261409476052;0,537671141196908;0,476395576421846;0,418017098898435;0,370743690796172;0,33661361508788;0,31378107736061;0,299205171596024;0,290080568975975;0,284558322339376;0,281740174945903;0,280631669211417;0,28061955188752;0,28217604524311;0,285846694428347;0,291556810866122;0,299445437774551;0,308962685854351;0,319458032453719;0,33086815806329;0,34301886437404;0,355488081632304;0,368337068050821;0,381231497659496;0,393823833685494;0,406364907831812;0,418683474104461;0,430511886931287;0,442122092200398;0,453329992618465;0,463703177068409;0,473762761223593;0,483230149264251;0,491973614597371;0,500237118508175;0,508101524573175;0,515305535822364;0,522162115379276;0,528346969082481;0,533844118244447;0,538968796642833;0,543450791190746;0,547349649882917;0,550764823363101;0,553540382489838;0,555708304614514;0,557233987167879;0,557903868828349;0,557997737794492
"5710_2022-06-01_HD";"HD";"5710";"2022-06-01";"WW";4,37145577025739;0,702205749470449;0,730049041442383;0,756449848798728;0,784402410720086;0,81007945779756;0,829439170901019;0,848009146537533;0,857943805552986;0,861645921341598;0,864913510425913;0,86823289402292;0,873109685206635;0,876804269802614;0,881459930658547;0,885880374902478;0,890221287468666;0,894689474231678;0,89879609008786;0,902484395823134;0,906238252490296;0,909676376331755;0,91227435904707;0,914905235471868;0,917034005067472;0,9184394687473;0,919490818328202;0,920040637923389;0,920287469970023;0,920024811839784;0,919283177694077;0,91821302750756;0,917226612411675;0,915928568634685;0,914003789438193;0,911436137677843;0,907075445629318;0,898472768655359;0,883106913305404;0,867556594100555;0,854462276731732;0,844782399412882;0,839490517713134;0,836921225761211;0,8355817218735;0,834448556946845;0,833330302801195;0,833054925136258;0,833602663291016;0,835418100003482;0,837796831285431;0,840345904393663;0,843013988517299;0,845564178000181;0,847935649593912;0,850159096675216;0,851926273784535;0,853155924869236;0,853775148764031;0,853759264019716;0,852993673473407;0,851213194290721;0,848228481420026;0,84394607540491;0,838530822520962;0,831421209100512;0,822182463280081;0,810840145550508;0,797367068797168;0,782268112912103;0,766318898729888;0,750319315822786;0,73530604340956;0,721014883020457;0,705675448049401;0,686642620092793;0,659629031863025;0,620090687715017;0,566617415806126;0,504379727807808;0,444145844252503;0,394481513459912;0,358082052561087;0,333423274068562;0,317620293506129;0,307617828170901;0,301691341878026;0,29854075337503;0,297380405370444;0,297480025891679;0,299272532676966;0,303396224698063;0,309831171315892;0,318531408532086;0,328966371573739;0,340466310002017;0,352790853072789;0,36591575908339;0,379372635130291;0,393120375411394;0,40679252815507;0,420209151406958;0,433488274948723;0,446451051927308;0,458963131218919;0,471170708858823;0,48283010227429;0,493645128304763;0,504042289345039;0,513849268527351;0,522976513232136;0,531551911587909;0,539833981027497;0,54739630991989;0,554613044491372;0,561106696327608;0,566931775821462;0,57242208542433;0,577266080616253;0,581557783284486;0,58526590264357;0,588413314719449;0,590907359989358;0,592701800767393;0,593640823116886;0,59399747062486
"5711_2022-06-01_HD";"HD";"5711";"2022-06-01";"WD1";4,41389708841523;0,732168580221368;0,76281812313806;0,791412019773679;0,822636414872889;0,85173688539834;0,873040808783709;0,891393197082797;0,90108429184365;0,906384198516689;0,910031263917987;0,914444975619131;0,918666823209781;0,922387175417968;0,927048685968291;0,931916712267764;0,936178458322466;0,941025104826603;0,945432795536298;0,949387955577135;0,953608247194923;0,956822391199091;0,959419082412807;0,961744803974844;0,963651044273742;0,965074359817996;0,96620375606463;0,966795621970068;0,966666637882406;0,966161713220786;0,965730785169042;0,964973768195076;0,963383594122915;0,961526971097538;0,959609683081517;0,957125265263377;0,952620527946733;0,943687329434624;0,928388930409563;0,912004081788133;0,89781879640519;0,887464958391754;0,881699296414472;0,879207723030565;0,87773710915414;0,876458079583571;0,875308093265443;0,874939157704185;0,875377223413226;0,877195439441399;0,879556892919984;0,882236222378251;0,885145462073048;0,887810601508676;0,890237500951078;0,892468639832174;0,894355876484989;0,895763721390594;0,896448806292352;0,896327666215518;0,89532236499647;0,893464803102789;0,890337399186599;0,886057275281398;0,880339113732676;0,872851930313584;0,86338002874062;0,851658655362949;0,837728267427857;0,822102123305912;0,805570141263947;0,789081334215572;0,773586032632491;0,758705426623706;0,742842894632419;0,723022792169632;0,694940443368795;0,653600353386724;0,597738087499717;0,532353807333742;0,468637794633042;0,415893692973477;0,377227356647053;0,350948548801382;0,333980923491753;0,323178297676309;0,316744886794431;0,313444363372718;0,31198962484627;0,312004033354328;0,313750342378847;0,318124376307759;0,324841586360182;0,33406028589651;0,345047950115259;0,357115396722466;0,370144922106005;0,383915328818103;0,398033468398262;0,412514031272616;0,426949036215308;0,441059213248815;0,454961486587704;0,468725324884478;0,481811499274282;0,494594926300564;0,506802677344839;0,518228378152787;0,529127470069131;0,539419427847421;0,548898284807127;0,557885924337558;0,566443317771292;0,57434032663064;0,581728795148926;0,58846112249605;0,594399090828395;0,599980667707798;0,604949450816199;0,609337188100918;0,613192537221222;0,616456648502496;0,61898794945723;0,620808604673048;0,621674606266796;0,621834407718441
"5712_2022-06-03_HD";"HD";"5712";"2022-06-03";"WW";4,82416316394101;0,721636310565807;0,750095413176573;0,776454496148708;0,804213298484137;0,830078311562174;0,849299721065623;0,865792373859939;0,875412484902502;0,880229792425508;0,883383109747976;0,887710049372538;0,891825666640799;0,895694181437738;0,899380381163082;0,903151001742885;0,907145190232615;0,911923803209349;0,915990095886862;0,919201767263394;0,922927551665451;0,926087403893435;0,928827626220916;0,930845370968723;0,932721726562362;0,934339484119257;0,934938075868531;0,935495815554457;0,935441519764472;0,93536573662219;0,93486604392054;0,93383082182973;0,932536651756932;0,93073587939131;0,92874164689659;0,926029610724596;0,921524914274078;0,912912337812375;0,897191470369101;0,881383922250416;0,868355329902022;0,858734252072303;0,853469378297542;0,850746288592136;0,849213139887525;0,84768754418002;0,846337521987054;0,845863973240138;0,846313833558495;0,848112000324911;0,850467432763743;0,853288932123908;0,856262428305861;0,858883839705452;0,861214303989551;0,863422679048337;0,86527347355125;0,866505410030317;0,867134757538549;0,867090718888884;0,866222979716935;0,864421632299094;0,861460519122554;0,857220142501748;0,851633913214807;0,844386751947829;0,834984304810971;0,823410715287465;0,809765504961851;0,794392045162957;0,778172754874996;0,761970621570313;0,746629009523872;0,732049280464645;0,716629785386455;0,697440887498313;0,670096107332167;0,629956556131613;0,575694212083042;0,512411250318693;0,451008492514038;0,400389323468022;0,36310254454877;0,337805667430207;0,321296832092887;0,31077842348659;0,304292482504125;0,300798286834879;0,299358534606;0,299336532827894;0,301028607329375;0,304957104317895;0,31126769082448;0,319999613374274;0,330549011939356;0,342444330064464;0,355126118913009;0,368575590849362;0,382219808599599;0,396278037874232;0,410290681795274;0,424004064140561;0,437468215391385;0,450785563158431;0,463583642781425;0,476028073250032;0,488007586392015;0,499064510066372;0,509669649996944;0,519722044240192;0,528977264922404;0,537833273622841;0,546226562638985;0,553949575127963;0,561253205416164;0,567888812400131;0,573780794741049;0,57929508260457;0,584173955963627;0,588420654654794;0,592144273246276;0,595311194857363;0,597867912989712;0,599635103378883;0,6005301664259;0,600724605376402
"5713_2022-06-03_HD";"HD";"5713";"2022-06-03";"WD1";4,44219130052046;0,732362312965487;0,760407855388076;0,78901962295539;0,817822256773754;0,845277160599731;0,865736311622007;0,882702436851754;0,892944826003107;0,897648874040043;0,901153165724011;0,905333015478579;0,909362779118878;0,913528491211332;0,917846333884621;0,922040121041696;0,926093622314883;0,930887987132446;0,934816131797484;0,938342937197555;0,942384192594935;0,945555967104867;0,948390238718139;0,95047301192543;0,952208905948304;0,953884340527475;0,954554132405449;0,955242172269152;0,955080384356714;0,954939496960534;0,954353206166709;0,953215817069423;0,951779956671309;0,949917924758273;0,947889529737326;0,94489941969963;0,940181501630663;0,931420048585593;0,915378350803139;0,898687053698969;0,88480609864525;0,874591563906756;0,869134173667261;0,866235637440988;0,864420140374348;0,862842610648705;0,861599358779572;0,86087970889246;0,861109262144242;0,862852741397555;0,865457628587048;0,868223809632689;0,871326739152083;0,874212469841692;0,87663175628853;0,87885809161429;0,880831175130692;0,88210804080419;0,88267429324551;0,882637279704072;0,881795442445853;0,879926077748464;0,87681115366702;0,872362584698883;0,866563597871999;0,85897991350281;0,849289205796743;0,837429474324846;0,823261600298867;0,807336982389021;0,790581874668915;0,773837244877057;0,75805679599693;0,74303811396151;0,727114201369434;0,707258767564485;0,679168921563764;0,638142357793974;0,582713115094728;0,51839037528012;0,456197386727233;0,404950166654731;0,367433016628997;0,3420573857691;0,325586784579068;0,314989776684448;0,308518306759998;0,304987771557962;0,303566493073012;0,303476903482284;0,305152185468452;0,309002632369323;0,3152023191989;0,323933714551379;0,334447382396369;0,346252070381879;0,358942747337099;0,372395803162852;0,386168540876168;0,400209370413586;0,414250998206223;0,428075925927585;0,441571192156776;0,45504725732006;0,46787299352902;0,480467204422575;0,492519930663373;0,503665513929864;0,514380802519831;0,5245162853224;0,533868526816231;0,542745967479529;0,551170463668488;0,558943430024886;0,566186404694843;0,572769669587876;0,578662880757169;0,584143198691987;0,588944315541747;0,593188271691922;0,596871456350413;0,599901617007443;0,602357144097019;0,604006303929588;0,604800792474251;0,604910984984072
"5714_2022-06-01_HD";"HD";"5714";"2022-06-01";"WD2";4,72513342157271;0,73412136810955;0,764887732981076;0,791957168704922;0,823308830364419;0,852718599725279;0,874062380871393;0,891348654951782;0,902391089641956;0,907618460160071;0,910957127658348;0,914603563398331;0,91875819221132;0,923354788735704;0,927755300290863;0,932641332391591;0,936764092029837;0,94146922421712;0,946228801038227;0,950279758737482;0,954674683650662;0,957982713101686;0,960522432265302;0,962781687198949;0,964840445777928;0,966443950347082;0,967404324860807;0,968313580037326;0,968338330813228;0,967893147591642;0,967424282241671;0,966642350440072;0,965079858017015;0,963404584334696;0,961474504873918;0,958799869753502;0,954198991679954;0,945183834340566;0,929832908843768;0,913360901582904;0,898978530969312;0,888409589491871;0,882618452284395;0,880120340771986;0,878704759346995;0,87751493829166;0,876267088012284;0,875860217446675;0,87638559989699;0,878263671873043;0,880858165993314;0,883911957020854;0,886970972134098;0,889864369021656;0,892539736573924;0,894870422986559;0,896836398369736;0,898386643858674;0,899127637243354;0,899102777151377;0,898290024127709;0,896429626892376;0,893374392746606;0,889137483221175;0,883402024812249;0,875977758302666;0,866534318403495;0,854718963096926;0,840758138529841;0,825143606249179;0,808588046786045;0,791987915363521;0,776428921432059;0,761484416611739;0,745494261002562;0,725506278053742;0,697250809010764;0,655833483873405;0,599795114610714;0,534357502001292;0,470689007098722;0,417929674548474;0,379234380989041;0,353056783791132;0,33615974098175;0,32549883923497;0,31923134580014;0,316103569564581;0,314887726194699;0,315092314241562;0,317030437590667;0,321516577500421;0,328492156776465;0,337953151850439;0,349202304700916;0,361469687965979;0,374758754726323;0,388708367967498;0,403065723787923;0,417651626423042;0,432332026685007;0,446591846001647;0,460677434962938;0,474559400205466;0,487804020795608;0,500792157882822;0,51313945836245;0,524670482114749;0,53569666408735;0,546134523968614;0,555689509759859;0,564805009453492;0,573429879496119;0,581449425733654;0,588991981217755;0,59581471136804;0,601903402097062;0,607556481927939;0,612594654862342;0,617072352951992;0,62102561697267;0,624287407055032;0,626787595433747;0,628548443771712;0,62929861190628;0,62937645054728
"5717_2022-06-03_HD";"HD";"5717";"2022-06-03";"WD2";3,80557152815288;0,775498357933273;0,802356197876155;0,827847112286624;0,85498422550366;0,880760818900931;0,899267744021153;0,915244831400021;0,925351895578853;0,930616881743655;0,934012925573405;0,937836553455361;0,942265447045296;0,945782692423152;0,949448079192437;0,953119475095994;0,956806973622449;0,961378650499548;0,964785832832267;0,967459217697219;0,97094927428382;0,973855221649101;0,976347295759163;0,978113272148447;0,979412444907279;0,980920542833804;0,981488236459557;0,982045300063805;0,981928755682432;0,981668639086146;0,981154631415476;0,980201475620804;0,979040954387488;0,977317288316378;0,975573784084403;0,973066401898996;0,968774838168414;0,961412286659828;0,948436778852045;0,933810288127935;0,921254899124683;0,912360457274664;0,907527859392895;0,905190508230034;0,903833447192298;0,902582956737993;0,901475533438235;0,901104023626793;0,901430261811465;0,902869290308721;0,905026402849299;0,907651696084915;0,910447202970842;0,912899091887402;0,915092727107399;0,917135212019598;0,918827515192622;0,920029155774783;0,920565874019837;0,920575373891436;0,919920067901513;0,918157247860028;0,91540637471596;0,911626341461159;0,906583650287804;0,899987555110103;0,891408737538807;0,880781897268381;0,86817888383323;0,85383823081704;0,838661782855858;0,823439715038979;0,80885208035759;0,794963943431827;0,780161898319548;0,761577581049619;0,734883649628723;0,695195223906811;0,640426140775016;0,575103657958743;0,510138414044552;0,455128731689771;0,41404377127158;0,385776116547295;0,367352118914937;0,355549294920121;0,348414834217083;0,344590415773348;0,343193270877071;0,343402811403853;0,345537530469629;0,350227712492002;0,357591854349857;0,367804594309443;0,379965529570601;0,393466360843163;0,407843901022869;0,422947832539653;0,438224926719223;0,453665066885855;0,469020477795247;0,483879063909888;0,498413601345595;0,512601191408265;0,526150329013766;0,53929868325994;0,551818965455591;0,563313178295067;0,574319205910346;0,584667266312446;0,594253316818516;0,603304674185136;0,61192033707296;0,619804117436653;0,627263186180346;0,633996157235108;0,640005243553882;0,645604372966412;0,650540959665573;0,654905183152408;0,658826159769576;0,662036060199522;0,664558619089782;0,666346478479603;0,667306492825226;0,667604472965472
"4020_2022-07-26_HD";"HD";"4020";"2022-07-26";"WW";3,03455424828547;0,748339364473524;0,772540987673008;0,795590189472115;0,821129919724169;0,842570723114564;0,859151431104258;0,871236596542186;0,878831028767685;0,881867052583558;0,884006561167031;0,886931084407748;0,890310603269246;0,893413872131801;0,896283951191004;0,899394944231124;0,903078070560193;0,906566377980959;0,909954490979704;0,913242976292726;0,915976301880103;0,918191494085955;0,920245605324591;0,922080049408502;0,923469365159484;0,924932905440078;0,92549894525458;0,925714911327601;0,925738564779924;0,925423472564761;0,925047914477376;0,924319392088981;0,923323243490202;0,922034805149526;0,920183680130061;0,917990040066933;0,914318380984486;0,906658843452919;0,892881543290211;0,88031679282765;0,870407631549684;0,862948113031897;0,858775868272917;0,856802222567378;0,85595985364797;0,855262380566393;0,854377863140518;0,85417681324308;0,854595538515813;0,855856779873454;0,857484807255738;0,859251836205093;0,861354682126036;0,863301477988155;0,865132658778372;0,866916593460143;0,868233274661517;0,869279748551625;0,869772832972498;0,869655149261058;0,868877410085992;0,867482101197224;0,864854578622608;0,861091767445163;0,856377395151251;0,850229931232634;0,842420107131968;0,832681507356377;0,821020224984493;0,807812252452817;0,793761851528298;0,779739954928175;0,766515578221105;0,753859376318784;0,740191424344885;0,722859279739301;0,697888402571146;0,660516545240356;0,608821060323021;0,547123946495221;0,485618618542714;0,43373816395176;0,395021720760932;0,368334199229271;0,350885456214928;0,339770711783068;0,333114640955829;0,329575800115829;0,32826304094031;0,32853347007889;0,330651111855171;0,335317081369487;0,342578851724404;0,352647053517544;0,364616826391999;0,377710576564462;0,391704699498429;0,406368798557433;0,421126756417812;0,436249121561839;0,451157532668822;0,465582173612144;0,479754897611996;0,493513152552422;0,506634665826051;0,519385001699899;0,531504461966356;0,542669373905886;0,553405103909279;0,563483781399704;0,57258691181033;0,581227440010012;0,589380854599887;0,596868678759937;0,603880390357264;0,610201497288502;0,615803270695822;0,621023307403719;0,625556559310554;0,629460357079446;0,632926805244424;0,635917616039953;0,63840827607728;0,640170460910064;0,641258186684583;0,642224577440682
"4023_2022-07-26_HD";"HD";"4023";"2022-07-26";"WD1";3,56507072525846;0,741543498797911;0,769427828573713;0,79617156445714;0,825192914281333;0,849796480424024;0,869398299193698;0,883401721523875;0,891497674874852;0,894919112537939;0,897349051992539;0,900645857576287;0,903969878589991;0,907582522951013;0,911594144029689;0,915359292772944;0,919320200495184;0,923458993571679;0,927524073652932;0,931347406890815;0,934983639122706;0,937749460745361;0,94003818698949;0,941877028672812;0,943859196258488;0,945707218836168;0,946456933549841;0,94671816565312;0,94666546058716;0,946389207380481;0,945782556825835;0,944773847137517;0,943485283056457;0,941739679059197;0,939571594592203;0,936913362829175;0,932423119141124;0,923557272256635;0,907731836514526;0,891855529545064;0,878930331904504;0,869688636251461;0,864558489253518;0,862243470126841;0,861145472063243;0,86025791120268;0,859248284116618;0,858830802109348;0,859250574172702;0,860864694488482;0,862739858018552;0,864809256941057;0,867274950430883;0,869747497091359;0,871817659367114;0,873859164303781;0,875447072907278;0,87659485244299;0,877161886451146;0,87698993538218;0,875989416462586;0,874212139878313;0,871042823692763;0,866525264193423;0,860754101645604;0,853335082594575;0,843891537589367;0,832158394880919;0,818282404584207;0,802678503799057;0,786077572075545;0,769580651838516;0,754237439816879;0,73955614085661;0,723879740621474;0,704172431109454;0,67597055654142;0,634467030024011;0,578072372031138;0,512338747642351;0,448509165538559;0,395937157703569;0,357503673238344;0,331507927688893;0,314688972449479;0,304048075378855;0,29772136567982;0,294436647762393;0,293205651210522;0,293464627847016;0,295493996387442;0,299873381931409;0,306700089523481;0,316302168643855;0,327761689815087;0,34031202406979;0,353848905416545;0,368179735887339;0,382709928787727;0,397665444129794;0,412564168169876;0,427105738192154;0,44149735982986;0,455552880880439;0,46901515410994;0,482201948377825;0,494851737970013;0,506497292271658;0,517752048775785;0,528323428787575;0,537999169126344;0,547162816592329;0,55583258231555;0,563841750201341;0,571298878778977;0,57809938645218;0,584093030402378;0,589722518192071;0,594591011583662;0,598844547217819;0,602586040195595;0,605803282265019;0,60849984273008;0,610454241643262;0,611643912320193;0,612674517441276
"4025_2022-07-26_HD";"HD";"4025";"2022-07-26";"WD2";3,05011606494335;0,776460179593722;0,8019086997264;0,82607323602887;0,852298094607225;0,875055596539955;0,892996154087673;0,906212136530523;0,914238536211011;0,917990520295412;0,92061753920573;0,923552109216901;0,927499549116571;0,930601440884074;0,934057782872303;0,937438708281402;0,940970941415786;0,944586754175978;0,948119282508238;0,951356957614129;0,95430444949087;0,956946269848258;0,958773421941703;0,960401660479072;0,962011085245513;0,963386537853178;0,964007012137052;0,964355342827671;0,964477044348627;0,964341304151744;0,963625436115507;0,962665670973875;0,961634897556846;0,960128287168297;0,958348446100967;0,956142951611351;0,952215433078758;0,944635072096949;0,931431834139268;0,917632453438206;0,906281366410975;0,898208165469375;0,893733706973263;0,891553111251327;0,89049104545624;0,889605501822866;0,888490375780928;0,888195559877391;0,888657198012578;0,89006491161933;0,891866486207376;0,893925741103183;0,896328221940389;0,898597425339104;0,900611148444273;0,902423700211229;0,903892171575646;0,905082286052686;0,905470186599904;0,905404028577143;0,904704938000083;0,903053064939902;0,900356232934199;0,896471237641411;0,891499014361204;0,885005603275557;0,876772242006857;0,866524761609214;0,854323615848163;0,840492669764823;0,825723576140788;0,810956243219;0,797062261207456;0,783663607901296;0,769249494409243;0,75100449168134;0,724794518914274;0,685607069720132;0,631465763577364;0,566928956643681;0,502813852461698;0,448748895553703;0,40839357402316;0,380733518902302;0,3625896603668;0,350943308233721;0,344026725672571;0,340288902329427;0,338867314525288;0,339072782602808;0,341311369592772;0,346163706561938;0,353672374059764;0,36414040364373;0,376538631422859;0,390125953915026;0,404608692835414;0,419752938068514;0,435109386361934;0,450794763820875;0,466352089754751;0,481382047891672;0,496105556113259;0,510474035897723;0,524200785234831;0,5374527831009;0,550130699151939;0,561754597797725;0,572937198604411;0,58341443204909;0,592939414904647;0,602041851603762;0,610615755493689;0,618481458169749;0,625860090164791;0,632528807635445;0,638398114742025;0,643844987008599;0,648601238276877;0,652761079203718;0,656464998346743;0,659681213989194;0,662469048439776;0,664398248988719;0,665455347825409;0,666314863351217
"4026_2022-07-25_HD";"HD";"4026";"2022-07-25";"WD2";3,53394709194271;0,716062005832321;0,740229100638285;0,764648136480839;0,788982680813165;0,811287789113177;0,82821402034116;0,842403711710001;0,849903950024404;0,854154437248513;0,856972755885672;0,860126957522357;0,863442036332628;0,866430079035293;0,869932383994334;0,873382774439745;0,876949951059073;0,880975215597153;0,884279417376052;0,887145869329657;0,890583919876841;0,893383530214877;0,895304998157502;0,897267680110626;0,898872897847166;0,900004681363731;0,900899719556494;0,90137101128687;0,901359165805097;0,900927577900524;0,900584702691982;0,900030032682365;0,899024650832998;0,897688091205634;0,895947914827158;0,893521254053627;0,889630772849372;0,8817204029143;0,867574283154248;0,854672183392117;0,84428749413135;0,83627249149022;0,832030607661769;0,830260019093289;0,829282855485184;0,828297065706669;0,827542202096277;0,827298847281494;0,827686604436638;0,829124053521605;0,830961834453215;0,83313823278665;0,835340780423492;0,837379257630209;0,839316322880121;0,841216917914965;0,842685261215606;0,843743824119246;0,844165157384722;0,844003564446865;0,843257770776455;0,841844959728856;0,839154111688366;0,835318921848341;0,830551615147568;0,824374646005539;0,816319444423076;0,806424747482866;0,79458149557522;0,781214478317948;0,766908771214379;0,752513761213424;0,739035346117632;0,726108520739344;0,712072384410861;0,694645579702184;0,669576319200355;0,63229596960924;0,581156847819115;0,520572081121068;0,460804523981408;0,410724199240823;0,373582131153959;0,348280697994703;0,33190636873198;0,321561493933622;0,315495326635818;0,312357605275246;0,311423166009547;0,311744052120392;0,313837916487178;0,318287669088159;0,325144474803813;0,334718568182288;0,346029861010636;0,358376104426448;0,371615014392489;0,385442262407155;0,399502493588719;0,413783465391498;0,427960538606173;0,441771438416406;0,455368291128745;0,46862248201433;0,48116104065904;0,493467202938277;0,505167541333902;0,515972609666405;0,526251836016217;0,535934662178717;0,544781747943894;0,55312612703735;0,561091586966555;0,56833878468679;0,575185319558017;0,581365156168685;0,586891649570897;0,592004540702387;0,596481485085225;0,60033044020799;0,603744777364413;0,606527069855835;0,608744182265448;0,610383414474376;0,611310865453388;0,611776394245324
"4027_2022-07-25_HD";"HD";"4027";"2022-07-25";"WD1";3,08406911946962;0,732906688118114;0,757868187068333;0,781887520827015;0,806434782973215;0,828927915912984;0,84650217596914;0,861090890224308;0,868939404754776;0,872892452400233;0,87587795201339;0,879131074506715;0,881977810832523;0,884782887522468;0,888889810892752;0,892584162142398;0,895496284040304;0,899581909088665;0,902998113683423;0,905809779385477;0,909099240451702;0,911836340006873;0,913764095114476;0,915578054406457;0,917155775880068;0,91818869161049;0,919084238932214;0,91949501139274;0,919631102931094;0,919250842520105;0,91861143425402;0,917860051244377;0,916827585033633;0,915523933205477;0,913685066737784;0,911236151296513;0,907454795132021;0,899920490485959;0,886509880912154;0,87315775613721;0,862216522171176;0,853963370342149;0,849687434265019;0,847796369405407;0,846700867882607;0,845691547170512;0,844820517514031;0,844403432321863;0,844704920160189;0,846111085789893;0,847917985434363;0,849975643313308;0,852182973055085;0,854246836089263;0,856214754821818;0,858097578279907;0,859480848898988;0,860572559000079;0,861001302720981;0,860770369137744;0,86000028753747;0,858588800390055;0,855768267615125;0,851869934581447;0,846952682687697;0,840600343352283;0,832412248928876;0,82223307140888;0,810161047451506;0,796566956273402;0,781972768292593;0,767345376473743;0,753535589179859;0,740322429197592;0,726094588834363;0,708314247627498;0,682706875909526;0,644661692800789;0,592485018315759;0,530617452652418;0,469494036551944;0,41829187828963;0,380283450191595;0,354211047480982;0,337192616700272;0,326276972730126;0,31969165899462;0,316277378174455;0,315092366942445;0,315304613327642;0,317444918800071;0,321995013645163;0,329087394175867;0,33893563569216;0,350591418501477;0,363395009942797;0,377033174793884;0,391341162663221;0,405877686943555;0,420594336112112;0,435184673494332;0,449340266212413;0,463345762745961;0,476805216056558;0,489680233725685;0,502230801179182;0,514149130003553;0,525197251757094;0,535728605972094;0,545671619506351;0,554809223470108;0,563422594018782;0,571667352215685;0,579228134422925;0,586435652299366;0,5930325414007;0,598921572230691;0,604414198190228;0,609288109398342;0,613520738355292;0,617302863680632;0,620558062442826;0,623225127854492;0,625320312598412;0,626669810507374;0,627520911974475
"4028_2022-07-25_HD";"HD";"4028";"2022-07-25";"WW";3,63580625552152;0,730172803510853;0,757058329588021;0,783403655377238;0,810267074287958;0,834825036439949;0,854674985007942;0,869790576823923;0,877512572786598;0,8819899674158;0,885289046491994;0,888360581910856;0,891726286794285;0,894936797251304;0,899155163576298;0,903066877885418;0,906596438104349;0,911296629310357;0,914857610363986;0,917893391791632;0,921641598979673;0,925001981141175;0,927010960659028;0,929090510151578;0,93084994040814;0,931954903013113;0,933045665412213;0,93336367892059;0,93330221708745;0,932818063755029;0,932130704211048;0,931413494780102;0,930269028136888;0,928542209679484;0,926506509951484;0,923722109037485;0,919340363476624;0,910933204320413;0,895837170822918;0,880587895982252;0,868016313216792;0,858772874198009;0,853910191480266;0,851799005635113;0,850498598336755;0,849259754393374;0,848259215756544;0,847819731036519;0,848107833185146;0,849532534859091;0,851600237607887;0,85402903333248;0,856496111666664;0,858873940481592;0,861163180073789;0,863178858170872;0,864718230606488;0,865908297199426;0,86640556552533;0,866225059598692;0,865362109220386;0,863710107465856;0,860594581485374;0,856266171133069;0,850766474225806;0,843735757296028;0,834633524400734;0,823294572308733;0,80990986508746;0,7948904885152;0,778828704638331;0,762780399833456;0,74767140147431;0,733340650983701;0,717989622562403;0,698775274006196;0,671397202262816;0,631172362304455;0,576472292871015;0,512463025166419;0,450148086412199;0,398569894082485;0,360563285061433;0,334738222174318;0,31794182326843;0,30723864784276;0,300741160483978;0,29741307433601;0,296111462479841;0,296312406245938;0,298263429850069;0,30252657277;0,309281353886419;0,318684912510169;0,329903258250846;0,342264723121627;0,355564810056378;0,369502914378808;0,383706820945969;0,398222744890308;0,41263568401785;0,426670169101386;0,440564330570605;0,454076203179401;0,467038581045466;0,47963473651683;0,491729289088635;0,502922822681084;0,513597475957595;0,523777531671203;0,533096470586218;0,541929757262718;0,550421228444931;0,558243128392117;0,565685972026305;0,572501743760463;0,578590804244838;0,584308686127665;0,589394616603882;0,593789463651699;0,597683507388826;0,600922101447435;0,603608779891749;0,605680905763172;0,6069973270742;0,607791600036362
"5721_2022-07-18_HD";"HD";"5721";"2022-07-18";"WD2";6,05071725870255;0,717927799420656;0,74701499732079;0,773313771559754;0,801373690917828;0,82761148729832;0,84724988784833;0,863741333962867;0,872514740676176;0,877006409365083;0,879157776265671;0,882523938673204;0,885915130342585;0,889820981524426;0,894083636009299;0,898412883549512;0,902387427409403;0,906747085741363;0,91066822851864;0,914277631021819;0,918175863412068;0,921421216613712;0,923971456096881;0,926176339333354;0,928447355788969;0,929996926575032;0,93096337900795;0,931444761907552;0,931513137198828;0,931448221664055;0,931111141008861;0,93034960470923;0,929107503749006;0,927586288353984;0,925879922920627;0,923242764743873;0,918689137420313;0,909950858410839;0,894196633257283;0,878379259888134;0,864739223938004;0,854047786277011;0,847639948564764;0,844102319930558;0,84194341841255;0,840083370493255;0,838297117023871;0,836952715531528;0,836939162673612;0,838731683321795;0,842009841289488;0,845761607322845;0,849647795611183;0,852964360785209;0,855864071465044;0,858405568220832;0,860594210660919;0,862194295311788;0,862934996151866;0,862962664648147;0,862347802620997;0,860761862380272;0,857760703906495;0,853607973918744;0,848269379702151;0,841176313004719;0,832161181799996;0,82085888614433;0,807370303038987;0,792279722924159;0,776076295133595;0,759868200709126;0,744554337957365;0,729808752582079;0,71408272312495;0,694899885889183;0,668263852779778;0,629642414639027;0,577808093492312;0,517404504746527;0,458466148416654;0,40922221373621;0,372640827838642;0,34762602469272;0,331342496547627;0,32109088925149;0,314893037578595;0,311565235766412;0,31033942371306;0,310413993246069;0,312056723452472;0,315835677817014;0,321866021639615;0,33021909960366;0,340321634627305;0,351359261574751;0,363278359559273;0,375862762685862;0,388663748272393;0,4017913866141;0,414795287852285;0,427431721850777;0,439883963594833;0,452096909458169;0,463738431852439;0,47513645032231;0,486017834311325;0,496120548114555;0,505810293237201;0,515085551843766;0,523672731265617;0,531889266465041;0,539776148582794;0,54696055966495;0,553979015357527;0,560252665387218;0,565908647527075;0,571253573378772;0,575877885270805;0,579873330273353;0,583327039358528;0,586136542522118;0,588268780511715;0,589630411608268;0,589980878425871;0,589668070629523
"5722_2022-07-18_HD";"HD";"5722";"2022-07-18";"WD1";4,85670150786201;0,743107855788783;0,769973368567317;0,794684323081864;0,821526933386924;0,846042471876186;0,864812037888609;0,880047765668108;0,889000170366019;0,893527311340128;0,896205691520287;0,899169406712073;0,902402037333539;0,90628620242776;0,910305846064293;0,914102825627632;0,917308359779043;0,921108679186205;0,924457200842574;0,927726419660659;0,931053435627992;0,933758861375761;0,936091490230802;0,938063213289202;0,940119117140394;0,941267335371531;0,941991644496273;0,942609820796063;0,942601564104238;0,942562576696106;0,942231926509374;0,94158657904755;0,940470490759875;0,939156590713564;0,9375866093822;0,935171561317632;0,931221437890475;0,923747074691061;0,910185504890971;0,896384700193485;0,884500272761929;0,875334945859498;0,869988063711585;0,867127811223562;0,865369771196934;0,863871348934975;0,862446452669041;0,86164150823415;0,861828395756101;0,863411539866133;0,865912119074096;0,868817375096604;0,871960729463441;0,874670502542659;0,877090602571065;0,879158505928366;0,8808735311952;0,882212967345111;0,882824451143397;0,88281546515774;0,882184232768774;0,880644409473639;0,87794305760735;0,874223754064154;0,8693954409373;0,863030192411951;0,854881962641919;0,844654577210955;0,83238755892424;0,818571652431294;0,803634806911159;0,788600262560484;0,774361391067678;0,760572844673938;0,745774379448769;0,727575456202189;0,701877610100637;0,663868358667607;0,61173500905619;0,549653171950464;0,487886073146378;0,435424293652321;0,396028473319416;0,368669807775726;0,350768034315618;0,339284144163128;0,33231080958502;0,328516847063362;0,327033609825168;0,327117354118792;0,328961718376672;0,333223663475401;0,339982819893037;0,349336559735415;0,360505447166533;0,372795146724238;0,385965821145556;0,399766138327629;0,413790244406085;0,428056604477414;0,442217752503359;0,455861989512482;0,46929854690564;0,482418568342885;0,494763797403995;0,506897233399958;0,518402755766313;0,52900172275528;0,539229898338111;0,548918720456732;0,557867807345403;0,566437210749178;0,574655479899966;0,582141948903441;0,589398451999031;0,596010322790486;0,601896274674826;0,607422783814951;0,612256933604565;0,616464447879175;0,620162790472521;0,623186375530378;0,625590541063593;0,62722625942525;0,627833032904044;0,627798938481335
"5724_2022-07-22_HD";"HD";"5724";"2022-07-22";"WD1";6,05071725870255;0,7471891390107;0,774446115846215;0,799039468461289;0,826497165919664;0,8513367958118;0,869796694481638;0,884673632126175;0,893869095694042;0,898674259913433;0,901489472856156;0,905154097595312;0,908629677010807;0,911465837552536;0,915159836427523;0,918849096134558;0,922456129529076;0,926264693928038;0,929885714392619;0,932775845929975;0,935942196061812;0,938969876330276;0,941250012185084;0,943135574845084;0,944834566873931;0,946081179560417;0,946975728367057;0,947569491863892;0,947646097118201;0,947411342359029;0,94701199535061;0,946344068125813;0,945337459163531;0,944094154724763;0,9423820908978;0,939998129105174;0,936177418893824;0,928856592367329;0,915722785770318;0,902014545983593;0,89024406393341;0,881021355819867;0,875626473186434;0,872708532327776;0,870861570100225;0,869054318932752;0,867357727627589;0,866480304953684;0,866575356954791;0,867919833739303;0,870356192611245;0,873337198987771;0,876429369333665;0,879173547183119;0,881630998268874;0,883707161864222;0,885443098006011;0,886790962265962;0,887314021283033;0,887228196582578;0,886567695251855;0,885242250879807;0,882809446031023;0,879212537610678;0,874473044840437;0,868346210954571;0,860530550004609;0,850525545752611;0,838589516727827;0,825112832410571;0,810541680182878;0,795755828441862;0,781694581677471;0,768156126125498;0,753785030650797;0,736180117227461;0,711478451933642;0,675082683423868;0,624912464076417;0,564940570128852;0,504566677872285;0,452880726684596;0,413666079877858;0,38613172203466;0,36792323514909;0,356153240579728;0,34894264250052;0,345105814922844;0,343551727679884;0,343508111667669;0,345246951347269;0,349269920378604;0,355694766773097;0,364791111090964;0,375647370812965;0,387502619039432;0,400273895713031;0,413552849714248;0,426995251742641;0,440606479750836;0,454102305913878;0,467014878332003;0,479677808663457;0,491969893639095;0,503557946136629;0,514845965904436;0,525577169138508;0,535516828649748;0,545103343056026;0,554204313969363;0,562638264839439;0,570799393056567;0,57868314409082;0,586006446079388;0,593095963336233;0,599564485140481;0,605433536584016;0,610997295782253;0,61587312963266;0,620165617750917;0,623957339351467;0,627059703422441;0,629514841044413;0,631228275181158;0,631961694295972;0,632031975733663
"5726_2022-07-22_HD";"HD";"5726";"2022-07-22";"WD2";6,60386910535971;0,704418000906348;0,732581106118237;0,757956398954019;0,7862810984624;0,811293961390286;0,830308680259851;0,845942461660447;0,855022903629411;0,859369991424363;0,86222664962256;0,866013173301432;0,869835859998375;0,87318037749538;0,87691437851016;0,880627286007153;0,884310865144075;0,888588198289532;0,892853190952134;0,895999121842347;0,899522985479232;0,902717866238967;0,905344805015249;0,907645638092373;0,909182289789525;0,910687073663551;0,91185678070148;0,912548150359517;0,912634401536551;0,912486758979462;0,91201351937373;0,911309309368601;0,910257913860479;0,908878326350451;0,907143962318367;0,904502407332152;0,900110128905976;0,89162454919339;0,876043604161994;0,860807318721288;0,848152890218619;0,837931585225356;0,831914560660632;0,828500812172862;0,826119751478476;0,82401034754313;0,822172134314284;0,820669137187696;0,820492345455925;0,822152371202596;0,825535875561159;0,829247458833009;0,833094724033777;0,836547041555489;0,839561287549116;0,842078905239838;0,844153312466039;0,845792091938604;0,846518305167965;0,846462052886652;0,845741038431295;0,844310408777046;0,841590808636461;0,837546259533777;0,832390522737141;0,825692405304623;0,817091236202478;0,80630950941159;0,793441408180512;0,778942674967581;0,76337899702604;0,747720847291797;0,732969800963587;0,718649349513849;0,703243061548319;0,684525451122427;0,658554364194444;0,620822626385504;0,569954081651435;0,510587013456741;0,452319848785846;0,403540435545219;0,367224967517238;0,342272333529486;0,326061224355926;0,315794241233547;0,309563713310549;0,30622612793843;0,304926770096396;0,304910106316364;0,306578849606839;0,31034625467053;0,316241377004745;0,32472640255262;0,334828122981032;0,345846417354507;0,357793194167695;0,37037426916843;0,383075202751983;0,39618291935067;0,409121250984655;0,42168075574853;0,434061173872071;0,446227790954474;0,457672662132351;0,468982533749656;0,479740817259941;0,489672849302438;0,499250402898371;0,508315283177845;0,516748803540975;0,524794219840691;0,532567042267792;0,539652048306129;0,546442905238399;0,552637159473198;0,558219085598074;0,56345194063838;0,567995744801316;0,572019181836465;0,575553532029346;0,578360119970238;0,580566140505484;0,581969100791008;0,582282465154429;0,581850255793742
"5728_2022-07-18_HD";"HD";"5728";"2022-07-18";"WW";6,89388477943827;0,714528853160579;0,742030858912567;0,766878413905638;0,793642602278236;0,817579570353128;0,837064390187444;0,852290487542128;0,860864935278037;0,86527150128282;0,868159796547183;0,871171407891216;0,874472970335602;0,877997296939974;0,881958634951452;0,885944449269833;0,889690363077925;0,893620534103803;0,897639873151055;0,900866456673179;0,904124599222553;0,907474947253088;0,90981117783191;0,912270275099937;0,914232323019492;0,915700503248751;0,916746559872577;0,917052009811561;0,917318021213322;0,917371400186845;0,917157403548186;0,916518711271652;0,915428905778386;0,914026246621847;0,912284974651469;0,909963464723907;0,905926694869484;0,897981269540317;0,883756438776567;0,869075957107367;0,856804166875365;0,847186911908024;0,841457048590953;0,83829589314388;0,836241831974833;0,834422632229066;0,832866067745946;0,831892142342901;0,832036818952492;0,833719926090738;0,836440914417774;0,839774306467878;0,843209951245583;0,846288253031241;0,848931121632217;0,851319401118777;0,853313769714337;0,85472122522339;0,855517133177911;0,855550010135649;0,854906455793123;0,853492067331005;0,850934368496754;0,847170505764306;0,842293612376959;0,835858445502685;0,827563564641222;0,817164319794296;0,804731652801197;0,79067120788929;0,775695096771124;0,760456447795604;0,746082927032019;0,732178321101074;0,71744213110461;0,699317907556019;0,674068268555128;0,637104396358779;0,586721661311383;0,527351917481604;0,468484708433572;0,418887666473772;0,381664976793112;0,355925613544173;0,339043390291995;0,328276849147348;0,321662432793907;0,318186862905058;0,316762997263132;0,316822229528479;0,318471009771156;0,322438632730081;0,328629949009868;0,337192632232545;0,34745051697812;0,358726937332988;0,370948893419675;0,383740392163995;0,396694944424634;0,409946482420904;0,423136261618671;0,435799750009424;0,448369353204802;0,460584306812471;0,472205164244526;0,483570341784145;0,494366368191145;0,504356512241381;0,513972369531292;0,523136659219221;0,531626855683114;0,539815931920424;0,54760930360988;0,554836541323418;0,561781204411971;0,568103146598158;0,573738974975137;0,579025104483565;0,583720225299774;0,587840936576966;0,591409609645457;0,594331673924446;0,596625623706534;0,598139929475044;0,598557819398768;0,598352125081122
"5729_2022-07-22_HD";"HD";"5729";"2022-07-22";"WW";6,36195359186003;0,688517340382602;0,71947056809198;0,748797628726122;0,780134261642038;0,807021610207136;0,828860326554457;0,845843830505683;0,85480897838336;0,858890149972152;0,861713068673642;0,865175135128815;0,869674822041705;0,873504792263103;0,878144589849541;0,882909704418677;0,88708252547008;0,892488760171557;0,897523228692129;0,901635726741527;0,905813432679371;0,909982097471244;0,912872490974457;0,915653102952574;0,918061101176794;0,919721074062414;0,920924314723354;0,92166323778375;0,921944920244715;0,92167638677932;0,920998666622133;0,91986914137242;0,918318565227616;0,916498237520259;0,914211305323096;0,911057866578642;0,905712024828374;0,8952962492494;0,877106550708106;0,85809698894163;0,842101748030342;0,82999021559264;0,823236226575249;0,819687813413183;0,817516605530417;0,815658799939753;0,813870311836142;0,812693067017566;0,812816050323884;0,814798849539869;0,818119131303727;0,821862743556286;0,825728556355128;0,829171759286089;0,832395303688858;0,835239878571355;0,83752439123454;0,839263847737442;0,840104750043222;0,840059525447851;0,839257168446421;0,837430227654608;0,833941689228046;0,828976614953737;0,822630042639903;0,814355396735505;0,803849781655109;0,790833080276623;0,775380210088985;0,758215135900715;0,739993227130042;0,721857520187039;0,704999216652647;0,688754356946601;0,671749110110699;0,650984754060638;0,622212578990209;0,580970789561347;0,526375295536905;0,464370143632209;0,40566599236995;0,358142709955144;0,323748480151567;0,300726940774935;0,285891631610416;0,276556464436243;0,270916627355051;0,267972001819;0,266766548498281;0,266784927680959;0,268259070965271;0,271704574889896;0,277149315005299;0,284845949262911;0,294152046481121;0,304510845942783;0,315719286495641;0,327678420692947;0,339868286537151;0,352490725069911;0,365160579047293;0,377558385556522;0,389905670333939;0,402021891240913;0,413722270631948;0,425256460937601;0,436272360539754;0,446585279298861;0,456595964242225;0,466062095105484;0,474818969884945;0,483234115228454;0,491293836358092;0,498743599469571;0,505828008075004;0,512335916406375;0,518130352271561;0,523520434330481;0,528307446802238;0,532544885216583;0,536273579692459;0,539269931442639;0,541548376015855;0,543155418411912;0,543869432060289;0,543962379127956
"5731_2022-07-13_HD";"HD";"5731";"2022-07-13";"WW";4,86943390330937;0,703067384930944;0,73259885767034;0,761078825492274;0,790917050733447;0,817334799360004;0,837846009870307;0,853956046419328;0,86263529226784;0,865434178507043;0,868103554417147;0,871753603071748;0,874955741542558;0,878498496894566;0,883237135197976;0,887645183874255;0,892095213211308;0,896928263871265;0,901363392423351;0,905314471792334;0,909519599414062;0,912835073105601;0,915870935227882;0,918727607479437;0,920860633728469;0,922479697616392;0,923653156527077;0,924226567130279;0,924335734293416;0,924083543343326;0,923347688315846;0,922477642318215;0,920961180919387;0,91900297053135;0,916926810009446;0,913947227864444;0,908854652933854;0,899108399008803;0,882020385024137;0,863824085147227;0,84817541770954;0,836903862509911;0,830735764240151;0,827765459141107;0,825971283148536;0,824423603302821;0,82309569045689;0,822419398400806;0,822718720980413;0,824468426473074;0,827067251835434;0,830065161245034;0,83320967634358;0,836147411239467;0,838782440232351;0,841063722909752;0,842931474804141;0,844352439642311;0,84498716100643;0,84487313288528;0,843832103459147;0,841747624550951;0,83828257937705;0,833404595599388;0,827030385707591;0,818829329171453;0,808425172871675;0,795551044185875;0,780450227978807;0,763609133331284;0,745839498622781;0,728238453239027;0,711664071316258;0,695875696270252;0,679196395854313;0,658662378733339;0,629859541855514;0,5883404373448;0,533259371029827;0,470322797923071;0,41037113895583;0,361693689725554;0,326436716392591;0,302869113719791;0,287578692063807;0,278045820964137;0,272167280862787;0,269141833304142;0,267912251951638;0,267875484263068;0,269414032587407;0,27317705194327;0,278939750717506;0,287003640332561;0,296701435911408;0,307387365128457;0,319058339241545;0,331470000398533;0,344209487924812;0,357331988035877;0,370578541278499;0,383550279208392;0,396436606491726;0,40911185959458;0,421330230044916;0,433371878737752;0,444889056815764;0,455629226235972;0,466024366275049;0,47585946601667;0,484911168325018;0,493547764040111;0,501835646312182;0,509417062357548;0,51666584518515;0,523230989127017;0,529065018442377;0,534577134361265;0,539405117098599;0,543579885110006;0,547266062676387;0,550343273787587;0,552789299743331;0,554549445655169;0,555478192178496;0,555673824980615
"5733_2022-07-18_HD";"HD";"5733";"2022-07-18";"WD1";5,96583462238687;0,690508221506237;0,722585622434181;0,753224857088364;0,783646359750904;0,811682864713769;0,832511377880794;0,849019408748055;0,857581706753446;0,861055550845952;0,864201896248941;0,867523115603106;0,871055456088376;0,875508532994283;0,879778520704289;0,884418739384057;0,889030514666296;0,894385444420235;0,899319430165209;0,903443309792979;0,907677578482861;0,911655350963816;0,914907849629582;0,917806865352991;0,920090254770293;0,921377337397577;0,922347005016521;0,922863487192135;0,922682647061103;0,92216444075722;0,921445462787273;0,920132756820637;0,918468762047713;0,916375121695674;0,913632777693047;0,910234432271728;0,904646124705611;0,893676770361279;0,874260648417429;0,854559420887789;0,838151742109128;0,826143819506197;0,819514715017062;0,816225852106003;0,814259009194698;0,812510021843026;0,81074462125946;0,809763775822831;0,810018435910781;0,811827055532122;0,814669923213114;0,817873954838931;0,821215799942825;0,824406753445578;0,827373725246115;0,829936996073808;0,831949210879575;0,833525355063945;0,83423008583248;0,834058470780198;0,832919694902755;0,830821393748536;0,827115789274523;0,821857976848097;0,815073187541952;0,806332787438372;0,795437904023082;0,781907164941565;0,765830655031348;0,748111122861779;0,729357595690812;0,710834603540571;0,69363005129556;0,67732743171531;0,660140022725732;0,639042756709274;0,609698387110957;0,567747659875999;0,512561196365257;0,450486976486514;0,39211189739988;0,345219481589843;0,311622166586842;0,289169595042645;0,27472660261954;0,265710286945255;0,260143007418914;0,257165283732075;0,255938714127216;0,255871517935277;0,257285747869073;0,260599603458508;0,265870938667408;0,273398044885112;0,282505064879356;0,292606455109551;0,303654690205798;0,315430186123104;0,327544931629608;0,340001724904811;0,352602947328558;0,364924462925643;0,37726997002293;0,389517922696826;0,401216855063273;0,412837772261628;0,424068704821434;0,434462511786472;0,444558315056314;0,454132686904278;0,46300412938319;0,471423672600872;0,479483719072765;0,486895678865899;0,493912606169009;0,500276930497438;0,50600175172127;0,51135805651221;0,516005794042664;0,520125834385906;0,523678175420065;0,526639245120506;0,529043827832717;0,530759674807629;0,531689762813422;0,531939399755691
"5734_2022-07-13_HD";"HD";"5734";"2022-07-13";"WD2";4,39409113994157;0,703062150990284;0,731093978791656;0,757825981564041;0,786262351890394;0,811271955535488;0,830722036059528;0,845606203590217;0,854464402159618;0,856976298942072;0,859691543218652;0,862727806033103;0,866111186946112;0,869818176455673;0,874159012847342;0,87868743386089;0,882833222076497;0,887345146707313;0,891628952210103;0,895825075222708;0,899888256876932;0,902718818138228;0,905673552891787;0,908194375009731;0,910107955549818;0,911766876728985;0,912773004078344;0,913416752424513;0,913481484079153;0,913120112163663;0,912438940091742;0,911727613565507;0,910342913680924;0,908587603010979;0,906625295801912;0,903755601562734;0,898943950188773;0,889640072297036;0,873114878774707;0,855962665622067;0,84135412428395;0,83067511799185;0,824963986343466;0,822284929654054;0,820846124873314;0,819692945954592;0,818515835680793;0,817830131788489;0,818036961216468;0,819719573412632;0,822432794573956;0,825435736866143;0,828512942607878;0,831286607779282;0,833836445580842;0,836116046901169;0,837948329478589;0,839227805935478;0,839855044054385;0,839755872603411;0,838762097872313;0,836762318085616;0,833418615032471;0,828768265734483;0,822739776167921;0,814957495015319;0,805052208049994;0,792788680796045;0,778377915657936;0,76231085040171;0,745343967910639;0,728466766095636;0,712537562575535;0,697324743721413;0,681209041710426;0,661117246709039;0,633014479445122;0,592472351757164;0,538724848439232;0,477055063886358;0,418173797540467;0,370110762505246;0,335302830256448;0,312089511565823;0,297270393231385;0,288142002852536;0,282695664689044;0,280034092859113;0,279078592156268;0,279255898279432;0,281114494694746;0,285139118674578;0,291164791540212;0,299601062772078;0,309607467622964;0,320653621067642;0,332583816513762;0,345278223094337;0,358262401274932;0,371582312399685;0,384968481650438;0,398031545124074;0,411018017034191;0,423740955555845;0,435946334318788;0,447971709669947;0,459401108933564;0,470071620477722;0,480346249043518;0,490074295200025;0,498984267573724;0,507460471739594;0,515513121331099;0,522881366575626;0,529932205302533;0,536230177699752;0,541840913260789;0,547101806410913;0,551679302392643;0,555577014215129;0,558947159302768;0,561712459138636;0,563900247380492;0,565436167046715;0,566114773993732;0,566214491297501
"5735_2022-07-13_HD";"HD";"5735";"2022-07-13";"WD1";5,5003948332559;0,717182135263904;0,746486227464061;0,773749498949669;0,802842066654967;0,828738905225842;0,848449887883772;0,864910828974099;0,873417198889689;0,876500016885104;0,879333458160984;0,882536111627481;0,886022729123692;0,889433976745562;0,893839490450685;0,898384569865585;0,902562112945229;0,906926873735931;0,911234650466542;0,915006434450148;0,918879181514542;0,921812853236161;0,924747223460565;0,927251975976849;0,929098782740065;0,930693208132239;0,931766745966495;0,932253826402924;0,932376112473212;0,932174061827505;0,931368586301023;0,930501041817011;0,929143105078847;0,927244527038222;0,925186385646671;0,922354538530681;0,917611801868446;0,908394208904713;0,892522276653512;0,875382332370744;0,860231448537284;0,849186941568608;0,842966697406138;0,83981554884825;0,837949755625033;0,83633530042753;0,834880662165771;0,83368719003073;0,833629963050194;0,835312420126323;0,838508346583672;0,841980397792689;0,845449859285871;0,848650129381363;0,851545424489486;0,854051597385828;0,855996417299734;0,857495836916;0,85822158407825;0,858168496911116;0,857307734257603;0,855372330492312;0,852117052708704;0,84754636126528;0,841623522561454;0,833931369731244;0,824133062504439;0,812008384517877;0,797643945590048;0,78161632259216;0,764600897620952;0,747748637210788;0,731739854892743;0,716330387198291;0,699998132058577;0,679870330640022;0,651751534138447;0,611157491840588;0,557184484474611;0,495213071279696;0,435828681607798;0,387161702497612;0,351832022781369;0,328085841247815;0,312925127132109;0,303488436079377;0,297790320158847;0,294947684281182;0,293792813138707;0,293931768052313;0,295649579304045;0,299531066098587;0,305508505308097;0,313769470763137;0,323671052995756;0,334650581634889;0,346562054185545;0,35917292311358;0,372102816370565;0,38536809645941;0,3987404071297;0,411797131094828;0,424747148994464;0,437439912755077;0,449602344183595;0,461593108839068;0,473095841427516;0,483753703650969;0,494059000524392;0,503813159383052;0,512802487692253;0,52134304739461;0,529518471803726;0,536969818039933;0,544099775938668;0,550578325094091;0,556273227614236;0,561635838457597;0,566303479881198;0,570335777191726;0,57389441436805;0,576759311320559;0,578948994709733;0,58036957486486;0,580842788217334;0,58072396772762
"5737_2022-07-18_HD";"HD";"5737";"2022-07-18";"WD2";5,12832594407218;0,742319555702688;0,773317780388487;0,802687168837229;0,832504181859113;0,859581699637105;0,880228951336436;0,896424951373603;0,905815689446568;0,909337933095806;0,912852255816925;0,916441491677256;0,92019425934266;0,924499047235234;0,92898795244598;0,933898799410971;0,937987717107619;0,942579585481817;0,947406673010023;0,951171852398396;0,955065088636388;0,958672587144126;0,961588163539274;0,964114891919944;0,966036316732335;0,967100268741176;0,967977148475323;0,968450844119296;0,968342613670574;0,967814323423743;0,966914710859785;0,965613205709515;0,964072005155827;0,962171010259783;0,959403410346364;0,956186502683484;0,951043537166592;0,941247349953059;0,92443027756012;0,905893833651467;0,889942705404744;0,87857972201909;0,87233488888495;0,869361419752832;0,867679827081372;0,866110165872242;0,864372954220503;0,863406948938968;0,863651646721685;0,865470019198184;0,868316129703526;0,871594527308421;0,874884537148913;0,877939991063928;0,880822632530432;0,883272508330166;0,885224760386985;0,886663263790497;0,887308077287703;0,887207315238346;0,886143307799911;0,884036682763459;0,880613793462493;0,875663160178718;0,869354792015771;0,861113180182023;0,850728952629808;0,837908368727073;0,822600942733196;0,805581456707744;0,787431097086494;0,769381095906338;0,752483937762553;0,736274783292651;0,71909563391974;0,697879414096367;0,668157133200148;0,625156713855703;0,56784850914604;0,502078398102211;0,439187767732865;0,387902134744264;0,35063564060282;0,325708859003274;0,309731009122136;0,299686879460727;0,293703763536525;0,290491855269354;0,289323491070552;0,289405829359336;0,291150967088288;0,295099144889695;0,30127638156457;0,309979635323771;0,320472570467227;0,332075283780102;0,344641368224338;0,357978863676979;0,371659605157392;0,385706708924574;0,399788664350371;0,413568205293111;0,42730243788125;0,440810053029842;0,453703285717848;0,466456120844976;0,478668210496318;0,489968317423784;0,500880232155172;0,511178107007386;0,520692370363283;0,529765373976835;0,538315699668677;0,546169591726359;0,553616826942121;0,560370501614234;0,566372680371718;0,571981358609132;0,576879145483252;0,581113292288625;0,584700790355908;0,587691038057419;0,590116849683157;0,591813695304131;0,592648251861266;0,592817537791864
"5738_2022-07-18_HD";"HD";"5738";"2022-07-18";"WW";6,26716798130752;0,659296233103282;0,688511537432502;0,71677236708954;0,744902362003582;0,770907128130028;0,789708298670682;0,805582633930144;0,813488058787789;0,817105185427337;0,82017716239384;0,822935448800835;0,826250956638115;0,830601065191547;0,834713988295684;0,839129606701813;0,843572152277245;0,848550037638102;0,853178145268039;0,857354632640245;0,861383151034843;0,865282698783302;0,868371163067632;0,871124655304382;0,87340513306321;0,874658646178376;0,875844824627391;0,876371544739234;0,876293949454154;0,876028776446561;0,875511062837618;0,874543504560786;0,873034121609415;0,871316898253281;0,869061850533314;0,866004887462769;0,860832404914886;0,850347565764825;0,83117679367366;0,813326639130162;0,799139450518168;0,788424932648034;0,782493821380405;0,779612627304033;0,777937339025633;0,776532308947756;0,775015127190799;0,774195862206986;0,774513700654274;0,776372737542316;0,77914950206462;0,782238322997791;0,785379281580304;0,788288995363251;0,791023090439836;0,793447086059086;0,795378563924798;0,796854825228957;0,797491728730963;0,797346501647333;0,796358925128751;0,794489317118201;0,791012218587327;0,78605898100972;0,779838920025546;0,771811262836711;0,761710711499225;0,749087448159616;0,734193270071327;0,717632512524418;0,700163187301585;0,682819803989589;0,666765225814005;0,651529236965789;0,635440619668901;0,615575448199076;0,587934809389012;0,548378994152202;0,496381930777304;0,437844841273318;0,382755102054409;0,338669627664306;0,30716028586553;0,2862128693201;0,2728639597921;0,264477034766664;0,259494330573086;0,256817624769535;0,255800263198967;0,255783110489616;0,257166675027975;0,260397100948486;0,26541614392329;0,27261843669307;0,281362106595759;0,290986131443929;0,301547431110808;0,312783815931887;0,324370777690299;0,336285228674065;0,348325287965631;0,36011209679812;0,371954261896002;0,383635138978602;0,394865145812263;0,405939817622358;0,416713824359715;0,426623381159961;0,436288348168342;0,44543954210969;0,453871842931554;0,461935685047687;0,469547661443218;0,476527811815133;0,483152696520119;0,489168435068916;0,494476019911727;0,499459998737219;0,503761107129542;0,507621606882517;0,511045776950067;0,513886532894107;0,516121370781324;0,517753454628256;0,518610188402769;0,518921141201825
"5740_2022-06-02_HD";"HD";"5740";"2022-06-02";"WD1";5,51737136051904;0,708682281531573;0,737674494808453;0,763946232056714;0,793793501180646;0,822869872183808;0,84285637483658;0,860720193485245;0,870356465559609;0,875988575387905;0,878571434469165;0,881702377314581;0,885449704463683;0,889178549030408;0,893376632796322;0,89764287665992;0,901791584615508;0,906553712186708;0,911008124399928;0,914794873540705;0,919435501899398;0,922634108649438;0,925166169657035;0,927631510950643;0,929552874159274;0,931277493190287;0,93245459615811;0,933047502325779;0,933026375769765;0,933078013727848;0,932562467846024;0,931855165373975;0,930937987831396;0,929361697977365;0,927627954118536;0,925095224179908;0,920874080239961;0,91249436886166;0,896912300111677;0,8813097109935;0,868172258808954;0,857990242351552;0,852050038088731;0,849024673145172;0,847264626496954;0,845902514563688;0,844650084001638;0,844085027213534;0,84448002929205;0,846393077243107;0,848913787185234;0,85187789530067;0,855038002584497;0,857842256108003;0,86052599447652;0,863000487980769;0,864922275436039;0,866301009027527;0,867083719317072;0,867094269647355;0,866325468252195;0,864702569749806;0,862045068748464;0,858150433495096;0,853028368604115;0,846151405259638;0,837315297045029;0,82627227713604;0,813199797464268;0,798464084025821;0,782636724132104;0,766819272267445;0,752001506600774;0,737691382977062;0,722473551126084;0,703663964685847;0,67729716482826;0,638647939463998;0,586330136716172;0,524905504274322;0,464667157568485;0,414219751940718;0,376795859266481;0,351258741222926;0,334612652321824;0,324177208186838;0,318040392736404;0,314811385927111;0,313618793611833;0,313739404342241;0,315504345416883;0,319701555838802;0,326072159262437;0,334853528951699;0,345241672281975;0,356560871841225;0,36873706006205;0,381643566262806;0,394707553383414;0,408182551828346;0,42156169209114;0,434622516111795;0,447573997307463;0,460120736240484;0,472195151613902;0,483982744051661;0,495251383325532;0,505636466268963;0,51567035895184;0,525207897503067;0,534051565160155;0,542508279568687;0,550633601678197;0,558205786178074;0,565435807497682;0,572020507125378;0,577899818438772;0,583481797381124;0,588418768980474;0,592877541493121;0,596913057332279;0,600194983255027;0,602772961181021;0,604511842088336;0,605307339118486;0,605407711921122
"5743_2022-06-02_HD";"HD";"5743";"2022-06-02";"WD2";4,72513342157271;0,707495533906484;0,73773186745075;0,763754705616782;0,794906679443562;0,825015273898499;0,844820885495796;0,864409865616637;0,873744696290436;0,878094906527273;0,880587209811074;0,884333637750681;0,888333597979986;0,892307518464193;0,896852260845725;0,901400585355339;0,905621132641395;0,910370735183401;0,91479598868902;0,918866085525391;0,923389650088495;0,92681066816207;0,929423892776421;0,931897721175973;0,933768340032895;0,935398206761535;0,936547904235586;0,937185668399065;0,937166133426532;0,936875760374545;0,936342634879814;0,935465096854234;0,934268626320141;0,932698142524408;0,930746568869579;0,927952204593056;0,923418738335754;0,914540520236413;0,898042837885108;0,881717876759544;0,868112411591584;0,857722292537394;0,851908081698369;0,84927844947674;0,847793955503585;0,846692545166636;0,84564077639258;0,845186126211038;0,845578006617189;0,847303159090402;0,849626032309945;0,852383309326496;0,855223043846082;0,857919974383789;0,860402912742285;0,862644873286414;0,864486430833041;0,865811206790378;0,866555976445437;0,866479847341206;0,865460705311749;0,863541440714213;0,860483494773914;0,856150181722217;0,850373776376609;0,842868307923068;0,83349774363872;0,821733523695544;0,807762555443625;0,792162725173504;0,775573007665623;0,759047390150339;0,743607013351397;0,728738733818198;0,712861585737504;0,693027658608795;0,664989040130869;0,623911028869525;0,568632043590433;0,504517805145527;0,442571456431759;0,391563740754196;0,354340062808336;0,329354782398365;0,313266987022272;0,303206145426533;0,297436373387358;0,294383152604541;0,29327279038888;0,293425090327454;0,295081792867733;0,29936056451801;0,305808177680015;0,314631015204607;0,325097738017964;0,336561145714982;0,348991377862669;0,362209501063865;0,375755258057111;0,38965638622139;0,403554814315379;0,417226210558086;0,430808632550248;0,444082352335633;0,456876554649478;0,469377445113976;0,481358075280652;0,492498741248165;0,503171598815057;0,513266394503961;0,522551747184241;0,531322379241692;0,539633382475822;0,547340065590309;0,554589602629501;0,561091404987355;0,566908676326301;0,572371620016191;0,577166939038384;0,581343154589121;0,584941682592675;0,587904473083289;0,590272023822398;0,59189924357712;0,592711675164628;0,592990254564042
"5744_2022-06-02_HD";"HD";"5744";"2022-06-02";"WW";3,73483599788981;0,732375604138311;0,758169964494287;0,782999931255561;0,81051313250689;0,835071192088943;0,854634153672568;0,870772740620637;0,881066124842949;0,884919386025913;0,88865120363185;0,8922433978493;0,896377051406082;0,899641040356351;0,90423916466741;0,907920725299855;0,911566857928341;0,915769818478878;0,919359070013599;0,922977020584638;0,926320680271056;0,929071462140665;0,931510750028695;0,933523943663968;0,935173301732919;0,936386476404896;0,937186315383027;0,937574861255166;0,937590103603475;0,937307015218111;0,936736518133898;0,935774000962144;0,934499952186412;0,933004493927549;0,931150356037234;0,928500201897678;0,924109298298744;0,916214125248316;0,902195178314462;0,887604622482079;0,875528239453038;0,866634602189612;0,861830210457271;0,859675131664839;0,858329717795716;0,857062940151334;0,855984891853522;0,855746324830227;0,856217157635744;0,857754764389596;0,859788651640094;0,862244693115753;0,864892480130522;0,867292076098835;0,869613894682948;0,871581590172365;0,873104651431897;0,874360967506956;0,874884207270128;0,874730501808592;0,873869530074704;0,872251403263034;0,869456018864334;0,865482490664286;0,860221474823615;0,853416867481727;0,844806348277115;0,834024870074885;0,821181013011417;0,806827313213935;0,791540115480134;0,776215136799726;0,761683429784614;0,747663803326585;0,732720008910945;0,714044504332906;0,687400265412607;0,648000621060713;0,594350602141834;0,531104681485371;0,469070910753237;0,417574996703392;0,379526409092293;0,353628166224137;0,337000939914014;0,326519522615571;0,320234252192211;0,317011525365563;0,315887535185127;0,316121210066548;0,318216997266885;0,322658513238148;0,329658638130894;0,339068499936235;0,350398631924611;0,362924038961133;0,376287864057341;0,390368993245423;0,404717928964411;0,419341068681242;0,433872115676464;0,448001295896062;0,461984310253826;0,475559283006482;0,488633172930612;0,501302012506196;0,513398939157047;0,524630105366103;0,535316409870284;0,545403861497567;0,554616207678135;0,563400967820909;0,571730727818929;0,579418903901044;0,586554202710735;0,593048127285158;0,598803036326118;0,604243959267492;0,609081126881892;0,613262950000603;0,61693948990975;0,620001130721032;0,622533458325419;0,624338507151027;0,625340232150551;0,62577939039679
"5745_2022-06-07_HD";"HD";"5745";"2022-06-07";"WW";4,83831026999362;0,720749720909776;0,747432874195592;0,773630592749311;0,802460332350417;0,829222942701192;0,849563083895275;0,866332256687915;0,876634143672604;0,882432169113154;0,885598902344457;0,888481206845863;0,891992419041808;0,895609039689221;0,899690794979117;0,904026036710807;0,908069071199574;0,911704121815665;0,915796843863076;0,9196074003202;0,922957161463271;0,926282818066694;0,92882565591082;0,931234727054461;0,932938537050632;0,933779081727681;0,935071754858203;0,935971032386373;0,935929611220107;0,935479558318211;0,935271016266825;0,934804837564411;0,933385603678688;0,932121046772421;0,930521955273031;0,928036036066583;0,924214079448217;0,916249202299286;0,901713191790445;0,887584832770731;0,875856193327133;0,866528031802926;0,860966613083398;0,857951119824167;0,856430204570651;0,854980811496492;0,85365867001905;0,85309315035815;0,853448693138221;0,855216400060171;0,857591846491043;0,860349649590027;0,863319187618479;0,8661227034297;0,868546521329297;0,870752170261028;0,872557038459821;0,873890167074101;0,874664035555055;0,874666690611837;0,873905150627901;0,87237070000401;0,869788832987669;0,865966269412208;0,860925797130024;0,854363190667812;0,846004383848977;0,835541353315541;0,823065703648551;0,808935295322929;0,793765339677295;0,778511442921688;0,764250143895309;0,750238640922601;0,7353455261916;0,716841319324874;0,690559265175949;0,651770769088539;0,598680899399437;0,535586158015076;0,473282845445674;0,420779232779028;0,381752891228323;0,354864260412072;0,337439886000895;0,326372278173654;0,319765719183207;0,316376952974225;0,315076613152462;0,315172641494837;0,317114745629752;0,321595539638726;0,328406759686621;0,337809077262259;0,348889152603107;0,361168857810599;0,374249602103254;0,388092503967407;0,402188071954262;0,416553531235971;0,430894590967106;0,444856340300597;0,458575063861748;0,471944472057765;0,484692147915726;0,497201054603329;0,509084117534852;0,520084335630455;0,530553363267932;0,540547120945009;0,549736469690358;0,558426667113623;0,566791194545187;0,574507664324224;0,581747453666764;0,588389210681911;0,594254422007905;0,599807560774367;0,604746684015891;0,609074018055557;0,612844252289592;0,616081775478046;0,618520965467293;0,620229715530488;0,621014506856049;0,621179877318929
"5747_2022-06-07_HD";"HD";"5747";"2022-06-07";"WD1";5,02222264867759;0,700934874411466;0,730871262366014;0,758972800755939;0,789787649488347;0,819519352088021;0,84094205742914;0,859192478958374;0,869680445599847;0,874923751474876;0,87724273864761;0,881276230769972;0,885082997155686;0,889168305908817;0,894018637806928;0,898895532229455;0,903491847815464;0,908165857999143;0,913094415744576;0,917146855761339;0,921453747751278;0,925265306168919;0,928459374322013;0,931274839048124;0,933123076143578;0,934252416957476;0,935425884545585;0,936341012919753;0,936390589573067;0,93581927035475;0,93543389387557;0,93471008284768;0,933215590829165;0,931475828613775;0,929239347619314;0,926456328977833;0,921835743818883;0,912264981145434;0,895203734767588;0,878203282407692;0,863954983181684;0,853399079830765;0,847503723833103;0,844521432013617;0,843126075859669;0,841914639297327;0,840666543797094;0,840387930726665;0,840839578866076;0,842778378836758;0,845366232690006;0,848172332169243;0,851349529617678;0,85422071365242;0,856858317392746;0,85932397514822;0,861165301472284;0,862623937075809;0,863387486721324;0,863330515872816;0,862373543844513;0,860387186874976;0,857222966924119;0,852622371632606;0,84661118365659;0,838858211748025;0,828977800152861;0,816744275233286;0,802338746160625;0,786194653860734;0,768968471512226;0,751830032515676;0,73596657695706;0,720584817616446;0,704240730869514;0,683905164020941;0,655134668532404;0,613314009297941;0,557477857755096;0,492961790401888;0,431189163341235;0,380689152106058;0,344205548673423;0,319771590390718;0,304125930867835;0,29443143408999;0,288733386589371;0,285836153417117;0,284767203651745;0,284932514691184;0,286743091018009;0,290930176018628;0,297324809032153;0,306119348680086;0,316506997420253;0,328065082638328;0,340534323501085;0,353672789210793;0,367264087366342;0,381267029673101;0,395276174899033;0,408986988609466;0,422700454237716;0,436103183459936;0,448995695963953;0,461777116538015;0,473884408226443;0,485204068635812;0,496018653760105;0,506274146087608;0,515747791058645;0,524705837484255;0,533272347539793;0,541150256083403;0,54852013675898;0,555269689340327;0,561233821483409;0,566808154369927;0,571767863245681;0,576188704624191;0,580028458918839;0,583285754259916;0,585794792609398;0,587538512713313;0,588476953387148;0,588841263806197
"5749_2022-06-07_HD";"HD";"5749";"2022-06-07";"WD2";3,09821622552223;0,761177190474461;0,785815918986402;0,80930721452782;0,83676368469334;0,860730458188865;0,878870664412215;0,894643026536532;0,904019173538173;0,908755271861818;0,912324372344453;0,915203113016395;0,918823263711955;0,922454770830401;0,92644047572448;0,930297167845517;0,933626873416047;0,937149093922703;0,940873158134095;0,943803873544511;0,94703512636072;0,949822737947925;0,952025146933298;0,954095238660975;0,955860934440279;0,956596491814651;0,957385457804703;0,957896183238067;0,957827911517158;0,957499163549961;0,956992251840847;0,956273827597852;0,954972297955937;0,953792202977092;0,952186234843942;0,949874866608171;0,946328220229846;0,939277530985077;0,926690252366139;0,913813006212188;0,903017461447322;0,894938157681819;0,890562495838524;0,888403299742752;0,887399654454634;0,886561602814324;0,885707195272476;0,885472107438461;0,885944544898356;0,887549114605321;0,889243882624086;0,891269589933515;0,893660342223896;0,895989281355909;0,897901199739908;0,899626592133625;0,901067054211153;0,902192054055513;0,902820515510281;0,902733424734623;0,901934163789296;0,900497542891673;0,89806635077486;0,894559319698081;0,889859649998174;0,883788688807836;0,876057821432398;0,866417723742737;0,855058276143607;0,842144738382258;0,828327230062743;0,814488734553966;0,801484925281583;0,788709046706817;0,77500063921479;0,757833563998622;0,732918182862426;0,695645523607549;0,643899661537368;0,581414948010467;0,518651085600564;0,464998385262544;0,4245677852802;0,396647514287281;0,378412742169185;0,36687860892572;0,359984793297983;0,35644559817148;0,355215030562922;0,355558508608064;0,357844879958308;0,363008659564865;0,37090628925613;0,381489371529201;0,393844893491097;0,407478701981689;0,421865847672864;0,436950898676737;0,45219503525697;0,467716626470782;0,48296686911671;0,497755103883393;0,512264633881702;0,526225332510443;0,539615965642795;0,552580481514492;0,564793484566834;0,576141934469896;0,586832945178177;0,596941622663903;0,606206937363204;0,614926960018377;0,623156323022013;0,630755161038433;0,637819729352781;0,644293838205916;0,650000863636337;0,655345242249227;0,660085568988336;0,664263176216762;0,668055375978953;0,671301222447401;0,673833364585765;0,675650183807179;0,676670862937231;0,677243475838802
"4500_2022-06-03_HD";"HD";"4500";"2022-06-03";"WD1";2,81527410446997;0,774299122014097;0,798140678878569;0,820498021996553;0,843735499643391;0,863934111410388;0,881605776807839;0,896467511622958;0,904057889234454;0,908494829861568;0,912361233374046;0,916035806099128;0,919519637599653;0,922133227274566;0,92585191162137;0,929464611764175;0,932349324696747;0,935524200741562;0,938343053648852;0,941123202028522;0,944078343621224;0,946315500407439;0,948177974763774;0,949829028176151;0,951230283604032;0,952179472746945;0,952723475042576;0,952930079674629;0,953092654521736;0,952962527402226;0,95262848862846;0,951996264377388;0,950961635447411;0,949779356450639;0,948155272404916;0,946026795935567;0,942565253563893;0,936229418020534;0,925303130497434;0,913402653368582;0,9031918497906;0,895954914221521;0,892037567600552;0,890156245144215;0,889080046961794;0,888185150661475;0,887316488742713;0,887039328995746;0,887372703245945;0,888632210353868;0,890322872259899;0,892254395261998;0,894393684429877;0,896490035602139;0,898368178905759;0,900078663136034;0,901301821277549;0,902268600359266;0,902867198596783;0,902816302843077;0,902175015088274;0,900894175241915;0,898452880536123;0,895214878951773;0,890944783771801;0,885225671375907;0,878040356049632;0,869084689464563;0,858184649079272;0,845958302875395;0,832913544994637;0,819712219974001;0,807021493158023;0,794946625699334;0,781895019343391;0,765526631220842;0,741934212326673;0,706270051739097;0,656288474613095;0,595375862087318;0,533412980672915;0,479941865209903;0,439215205964917;0,410731306563474;0,391817126813924;0,379683248979212;0,372296790618463;0,368300426621182;0,366927021431087;0,367148778702293;0,369413134136416;0,374349491076309;0,38202318867842;0,392597487987792;0,405026693873975;0,418641442456502;0,433181339616743;0,448293077945078;0,463544889704942;0,47878686471469;0,493832802715834;0,508292004407952;0,522340412052287;0,535868092356642;0,54876197211883;0,561101637093957;0,572864636166658;0,583647995442964;0,593877224290398;0,603560779377609;0,612323762330681;0,620802741218232;0,628712669465421;0,63593232212056;0,642831156034998;0,649071563941564;0,654633633708254;0,659795943030431;0,664416774982306;0,668422137708326;0,671868989972844;0,674849683164916;0,677319876933956;0,679205089911824;0,680413700545429;0,681262312071441
"4502_2022-06-03_HD";"HD";"4502";"2022-06-03";"WW";4,78172184578317;0,695769203147777;0,728007549965104;0,759687148060985;0,791532276972688;0,819676835708865;0,842710357908672;0,861531937553777;0,870862391939823;0,875074728299113;0,878448131731175;0,883197409314002;0,887095498828953;0,890942668732584;0,896348609407476;0,901853944339975;0,906741918353721;0,911872983884005;0,916841584591128;0,921726798515348;0,92607116635156;0,929745641709632;0,933178953503686;0,93612254725263;0,938308729136202;0,940040290845456;0,940989990181209;0,941415453052699;0,941356339894227;0,940961293787115;0,94017700882384;0,938759533700091;0,936715290399461;0,934668266632763;0,932027738591961;0,92842314628761;0,922587203593681;0,911503191718135;0,892627730572532;0,872145927387772;0,854799755030824;0,842658627891348;0,836022824766844;0,832993917793058;0,831330885810391;0,829950487703674;0,8283536866836;0,827725435248613;0,828166188679009;0,829928644000211;0,832710388981962;0,83570023780151;0,838963707766398;0,842185896175458;0,84499817812033;0,847606033635053;0,849699820198124;0,85127682966519;0,852113314265461;0,8520172594047;0,850858904614975;0,848600756892778;0,844775174865148;0,839378408837752;0,832275979110157;0,822979830427273;0,81135482701544;0,797045085004646;0,780103859987635;0,761361564988013;0,741827040898493;0,722494272277808;0,704430884658736;0,687543551894216;0,669716313585918;0,647716825148908;0,616785429051725;0,572361578271547;0,514101770074392;0,448575226861626;0,387315967520108;0,338666671159976;0,304053343176972;0,281182849834653;0,266488744887841;0,257191025679308;0,251603233623506;0,248584802529705;0,247361479445689;0,247438577449978;0,248998924837303;0,252613362500695;0,258256560207518;0,266229906345228;0,275771606798136;0,286543026335767;0,29836343922193;0,310886312295361;0,323911182332185;0,337316956274915;0,3508568930224;0,36424864003705;0,377642977945226;0,390835831121704;0,4036616891321;0,416317262551788;0,428524643547263;0,440000662435752;0,450990457157438;0,461525881919472;0,471211934226711;0,480549022283912;0,489356551126103;0,497579787125836;0,505310618553976;0,512336358803526;0,518661565891147;0,524567983272822;0,529836903384879;0,534468424392258;0,538441469612555;0,541869685094142;0,544696158851251;0,546781473592709;0,548071907800552;0,548811667912134
"4504_2022-06-03_HD";"HD";"4504";"2022-06-03";"WD2";4,22998470973126;0,737596112700363;0,768903358916966;0,797788340111589;0,82840786317998;0,854296850723425;0,876968311104449;0,895091845351819;0,90441143703417;0,908911399022183;0,912740280111246;0,917614609145271;0,921458765249298;0,924943013215833;0,930347818178374;0,935308189130447;0,939337385218677;0,943796813356553;0,947975010698928;0,95221105613587;0,956255771010904;0,959534535685253;0,962427291548706;0,964753035145642;0,966699296628776;0,968113494882704;0,969108829834848;0,96931886898067;0,969436496845024;0,969060368101703;0,968159053630628;0,967184338227855;0,965650134372291;0,963704393177564;0,961203323350956;0,95793646088945;0,952787098697906;0,943614824239243;0,927876090368346;0,909720540896811;0,894374706951296;0,883557591728361;0,87769324080185;0,875247762629708;0,873876795521569;0,872710843723798;0,871470822580724;0,870936301491698;0,871274403078711;0,872761464680207;0,875017711689173;0,877724642416955;0,880637307802864;0,883503572568958;0,886048857854306;0,888340342397703;0,890026532175759;0,891366129950757;0,892079706550421;0,891984717008479;0,890970395130101;0,888980586516171;0,88550417190041;0,880602147749228;0,874303893726294;0,86605045760404;0,855644305332141;0,842833166335076;0,827470487393265;0,810338370229432;0,792419938623983;0,774471368780245;0,75754165377217;0,741645370021132;0,724612096377933;0,703411538005582;0,673394865159509;0,629546781362385;0,570658675973637;0,502644748964912;0,43737238090685;0,384170930062818;0,345777751224872;0,320061788983001;0,303567749466161;0,293223774184379;0,287069391803557;0,283817384976795;0,282666650960528;0,282893246931393;0,284829076383442;0,289065181912279;0,295668791959819;0,304880887724975;0,315975948103944;0,328258592507232;0,341670649553192;0,355839599477629;0,370357972804024;0,385141284376523;0,400058481553706;0,414573502053298;0,429047265185753;0,443077433132214;0,456654999029891;0,469899890026553;0,482636814251526;0,494540092064475;0,50587445173103;0,516667411153705;0,526542113495278;0,535967574116715;0,544878328704785;0,553099376909954;0,560792277117402;0,567770066024431;0,574021148374208;0,579840038297787;0,585031176698219;0,589559784086252;0,593365324941225;0,596649289398094;0,599320301632399;0,601307184917026;0,602519984336931;0,603275310761236
"4505_2022-06-07_HD";"HD";"4505";"2022-06-07";"WD1";4,62610367920442;0,68426580434852;0,714061670123534;0,742049789619919;0,773068285827847;0,803912789018382;0,824634262200447;0,843503240275525;0,852673846554344;0,85658553724369;0,859316837210466;0,862533808133106;0,866360914087735;0,870311348504523;0,874693014761318;0,880007053786499;0,884520117268934;0,889913459153368;0,895178734585379;0,899626094212422;0,904274441866835;0,907987895968824;0,911162221125225;0,914307660086624;0,916980093427376;0,918311920637136;0,91950676132153;0,920270349700094;0,919894739432175;0,919939907153633;0,919728464929575;0,918600027150808;0,917263156264597;0,915769311852168;0,913968825056281;0,911339163761359;0,906596017248582;0,896795443361903;0,878736717854843;0,861200526213282;0,846788891382457;0,836196177289265;0,83039345953825;0,827812567836845;0,82655582146793;0,825476528974392;0,82443474481289;0,824143675729548;0,82468940106047;0,826566372173532;0,828881526550888;0,831615338484513;0,834469010842549;0,837191843235893;0,839738704652617;0,842068542999762;0,84414147831785;0,845574765949956;0,846348040323976;0,846345887943023;0,845451173600152;0,843456915663082;0,840055620913053;0,835332664400521;0,8293108408322;0,821418149551511;0,811450407394208;0,798979686039635;0,784206954974482;0,767935342586607;0,75062959336527;0,733521192777338;0,717712020923207;0,702369641295564;0,686063966591753;0,665776087003433;0,637088633050997;0,595352785995202;0,539791578652601;0,476174625935547;0,415621078301882;0,366393327182074;0,330951788243049;0,307346166514987;0,292166040594948;0,282669964288031;0,277117199986569;0,27431461080031;0,273211852895424;0,273375533950359;0,275298708622577;0,279495982107669;0,285991074484953;0,294782961639823;0,305184290518969;0,316579612237669;0,328994176201571;0,342168136798153;0,355738797390741;0,369682398076379;0,383819528100968;0,397607290701124;0,411373972060903;0,424865792024733;0,437948324142435;0,450806879693021;0,463033364066129;0,474608510653915;0,485702565508457;0,496031767608927;0,505806877281982;0,514942226811949;0,523667315942604;0,531696335740549;0,539291466377422;0,546222087548965;0,552403384002791;0,55817503243513;0,563291297137944;0,567869805369579;0,572107761926635;0,575721642952428;0,57846041764829;0,580368563883981;0,581527668961166;0,582221336362416
"4506_2022-06-07_HD";"HD";"4506";"2022-06-07";"WW";4,01777811894207;0,723722389453697;0,752300796937105;0,77880787372884;0,809494792644832;0,838505309290645;0,859471772743262;0,877572947206628;0,886749081047433;0,890840009766207;0,894844084134691;0,898614780631936;0,902507834466517;0,905887166760676;0,910138232970511;0,915006304762686;0,919068645148399;0,924468717491979;0,928662166090975;0,932368513434739;0,936283255899624;0,939642980533037;0,942796795272649;0,945263500802297;0,94737234852198;0,948533277304471;0,949504529470351;0,950176466030437;0,950047813832284;0,949896695119557;0,949518567370992;0,948438201718741;0,947182418416102;0,945735472000339;0,943818929362041;0,941299316963785;0,937032620399568;0,928444770357765;0,9129536159025;0,896878131188543;0,883305518987946;0,873368669162467;0,867905826654574;0,865393537110572;0,864029609952102;0,862907417490069;0,861690365838811;0,861337776150233;0,861828838598542;0,863567339175731;0,865752102281818;0,868324701910501;0,871199099209576;0,873846129072281;0,876297348958907;0,878508678687597;0,880381271957088;0,881718663266271;0,882314459632937;0,882237288164047;0,881337689972339;0,87947108393199;0,876397464689291;0,872019809927052;0,866350337698225;0,85904327208313;0,849764415407102;0,838116317328181;0,824255087048045;0,808847486304494;0,792392557282532;0,77602868697156;0,760603217133749;0,745703012415313;0,729771467432346;0,709815945649761;0,681439439101105;0,639794888547453;0,583289331565584;0,517537900278752;0,453664620246286;0,400870876629542;0,36224252848301;0,336234637417167;0,319392743870084;0,308772567534657;0,302501614393231;0,299352242654328;0,298221516171008;0,298373693136935;0,300449311288413;0,305080702868785;0,312229595209009;0,321850869528217;0,333200068279377;0,345608005604069;0,35908492727687;0,37333504223087;0,387930934939348;0,40293413652033;0,417930212423168;0,432544459792955;0,447054652151391;0,461224211898272;0,474886232044334;0,488201270809531;0,500916935684711;0,512746398594951;0,524125070600282;0,534730704774477;0,544712979017919;0,554038945276449;0,562950987641297;0,571151012932802;0,578873709488464;0,585881774599389;0,592239703899043;0,598189194152674;0,603390663270014;0,607976717410397;0,612028400570719;0,615472669366264;0,618191513004562;0,620175295865464;0,621271386926855;0,621981081970111
"4508_2022-06-07_HD";"HD";"4508";"2022-06-07";"WD2";2,87186252868042;0,7579102224328;0,784521979353402;0,808532541895483;0,835745198673298;0,860221400165394;0,879316789470271;0,895700742022394;0,905202692454461;0,910315986002109;0,913674828084853;0,916620970063632;0,920172591230102;0,92382061072235;0,928331191971981;0,932445109243914;0,935710886335744;0,939189700822102;0,943174433928598;0,946514448447261;0,949498247159125;0,952603434563818;0,955050537258478;0,957244101858078;0,958720104114941;0,959521152838013;0,960410362278788;0,961084681375096;0,961126697691602;0,960666656797649;0,960429475082091;0,959665395824769;0,958311742911959;0,95701163322731;0,955327016413932;0,952935469675745;0,949112416422943;0,941682993631843;0,928610852348796;0,915056966251372;0,903637977900257;0,895201222359222;0,89065093604044;0,888622490218515;0,8877428309994;0,886921542614053;0,886156222981173;0,885833180969964;0,886243646702564;0,88767973782294;0,889477338150885;0,891660356825575;0,894099743642236;0,896518181088251;0,898557491718958;0,900364540216703;0,901834133433507;0,902895406609717;0,903509983487798;0,90345951686143;0,90265834008042;0,901068241692708;0,898467195908592;0,894740748873917;0,889780364628283;0,883356989535951;0,875231808268783;0,865167072948584;0,853136010846124;0,839510673209788;0,824999393403707;0,810495214783052;0,796830811877623;0,783601352178025;0,769274274156824;0,751310474078642;0,725401757261688;0,686819384605029;0,633517747213056;0,569699156545755;0,506129649584962;0,452209056083122;0,411980469190528;0,384330965280569;0,366427142128607;0,355173621680042;0,348498397570429;0,345204355549747;0,344120821682148;0,344553217215787;0,346946364969972;0,35212292718073;0,360082783853275;0,37072412302966;0,383137589832627;0,396777930846434;0,411357429144853;0,426490373955131;0,441838909427134;0,45741412154033;0,472833008389093;0,487727651230263;0,502315620236917;0,516422141482324;0,529908564944637;0,542958832145983;0,555325981374034;0,566810890999666;0,577699285033096;0,587953577435619;0,597318590874267;0,606195304477728;0,614551981306268;0,622251590148766;0,629416206672129;0,635949579918713;0,641765960119923;0,647190424586838;0,651957314451014;0,656091887940502;0,659767848512916;0,662936358489531;0,665358339199389;0,667166980921661;0,668210760859605;0,668822522486248
"5230_2022-07-19_HD";"HD";"5230";"2022-07-19";"WW";3,75181252515295;0,747446379659071;0,77228122949184;0,794803181840054;0,819576168335909;0,842028631073056;0,859158229951405;0,872907080629388;0,880582300288297;0,88528341354379;0,887885992023716;0,890860468745323;0,894191889718223;0,897535387095347;0,900542990277274;0,90414503505496;0,907224738099547;0,911269192081093;0,914976184854001;0,917889020606356;0,920588128050515;0,922987375028255;0,925138153096062;0,927012314407231;0,928719293818026;0,929656818886534;0,930629647871387;0,931020137546662;0,931201648612303;0,931236071786786;0,930842828892369;0,930095580746259;0,929382149528806;0,928170106311501;0,926673735978461;0,924757095024217;0,921280408413051;0,914405976359312;0,902130886440192;0,889825645408836;0,879414342782154;0,871533504651415;0,867091795397606;0,865197195176039;0,864099096230961;0,86308325007058;0,862011585459718;0,861630178106199;0,862017987772928;0,86337126649715;0,865365893030259;0,867775500290531;0,87024574647481;0,872519780935935;0,87447758614421;0,876236917990133;0,877622152230753;0,878739157290276;0,879193825273084;0,879109927796368;0,878382602347271;0,876924568925496;0,874652525826153;0,871254305367202;0,8666822172837;0,860794875671719;0,853317589778621;0,843881718859903;0,832559247338818;0,819766069012142;0,80602195323422;0,792144239209521;0,778962089935814;0,766093548059327;0,752343848319071;0,735403329158146;0,710902487047507;0,674489461910891;0,623824262784597;0,562669790154198;0,500788548412353;0,447696123722013;0,407332710184962;0,37923874868142;0,360696026084612;0,348966789627704;0,34173105222841;0,338156137065178;0,336906259647242;0,337130943400315;0,339379683239124;0,344176906646479;0,351643938884431;0,361720787269081;0,37371774318236;0,38680680466973;0,400797471627615;0,415368103199813;0,430032100083251;0,444902785258333;0,45949186087681;0,473490833600995;0,487218665127766;0,500498275325185;0,513033403870369;0,525206992640763;0,536694246804238;0,547251203937304;0,557442629671376;0,567039445773671;0,57583356977783;0,584281034378784;0,59227816588312;0,599658510492534;0,606732416762956;0,613080530851048;0,618823943223128;0,624179934286597;0,628825851625118;0,632769219205917;0,636197812983655;0,63908696402921;0,641389697114751;0,643059362418171;0,643823811513815;0,644013419362284
"5231_2022-07-19_HD";"HD";"5231";"2022-07-19";"WD1";3,508482301048;0,778654580454854;0,803474601432329;0,825161185020852;0,849127609625071;0,870797626274031;0,887648428404436;0,90074210874971;0,908922533697285;0,912947819115826;0,915726778416441;0,919261762592011;0,92211158190566;0,925356140066573;0,928724304176973;0,931973694930792;0,934960736539396;0,938771803264085;0,942306961140688;0,944909424777444;0,947492146118218;0,949851196142273;0,951699939535223;0,953411124162611;0,955147371178153;0,955935118333119;0,956500614776046;0,956992130003881;0,957188179965463;0,957163691598894;0,956784578475485;0,956046240360716;0,955005127645199;0,953705798323389;0,95215822224785;0,950036264374577;0,94662417282207;0,940031599193708;0,928590680318282;0,91660920277484;0,906077820219644;0,89824783067955;0,894028420134986;0,892247563047271;0,891182931159762;0,890117326099084;0,889152778982607;0,888935743714016;0,88937703804264;0,89065054064662;0,892469842571028;0,894668524266104;0,896927464743888;0,89905374678332;0,9009310262756;0,902649937644699;0,903976238870583;0,904944919425977;0,905433375685128;0,905349817987503;0,904604873830716;0,903190718706766;0,900973693601502;0,897649162650755;0,893180701886832;0,887491077426412;0,880216502596944;0,871057224110533;0,860074924857119;0,847737129367656;0,834449067652706;0,820958121667881;0,808150391298698;0,795765583127167;0,78248183443164;0,766027689775182;0,742197908164626;0,706585116910255;0,656766884664212;0,596157372784728;0,534430113339158;0,480947893381748;0,44002730700069;0,411503741162671;0,392714109731809;0,380806956823165;0,373661009377677;0,370030880840188;0,368900534689054;0,369266282288442;0,371661799025393;0,376695188241936;0,38447149391548;0,394999572039587;0,407488628043297;0,420959186981791;0,435385551137383;0,450331890251317;0,465321065982247;0,480517148802011;0,495364352001124;0,509653645002779;0,523605636192921;0,537075249773253;0,54985834027614;0,562198078768474;0,573870588394014;0,584599046457854;0,594844122426922;0,604475940740298;0,613358667727224;0,621790837894981;0,629770887829849;0,63704005945058;0,643999315885057;0,65019435853801;0,655728065050002;0,660937571499281;0,665406843812277;0,669199429326565;0,67247729256135;0,67510397115713;0,677123415001244;0,678549214617814;0,679095206991975;0,679119245558664
"5232_2022-07-22_HD";"HD";"5232";"2022-07-22";"WD2";4,68693623523066;0,729927555209486;0,759106965193522;0,787723945537365;0,816455938780811;0,842365751572846;0,862183898345064;0,879538332592903;0,887737463840767;0,890998472372268;0,894140075600883;0,897581015461143;0,901549712576427;0,905324437812908;0,909877106118366;0,914284938061966;0,918182526034018;0,923206922001635;0,927696878725845;0,931387350590054;0,935254800614066;0,938637258595887;0,941134919008264;0,943566081405662;0,945648321255415;0,946856488610899;0,947921064348713;0,948236197993806;0,948109421569131;0,947880674153486;0,947096264247084;0,94574859384324;0,944275241945436;0,94232051111943;0,939840203542294;0,936646264416437;0,931576460172204;0,921793798936448;0,90497212404048;0,887095770481677;0,871780923549219;0,861293389219789;0,855748036213522;0,852969502793011;0,851736529282529;0,850541897795723;0,849191585009909;0,848869296721775;0,849263449686355;0,850909385805226;0,853257806379269;0,856051885093509;0,859106508594575;0,861857779398659;0,864423372727833;0,866722474862154;0,868511780159417;0,869763646285087;0,870300885891515;0,870169866270544;0,869143436321;0,867059079362875;0,863611387905977;0,858818415027254;0,852501762489371;0,844366258034884;0,834202662037067;0,821581193434972;0,806581045560412;0,789772261862199;0,772033004378094;0,754330493089671;0,737772989249508;0,72207475441663;0,705444043533999;0,684829311048378;0,655772806771504;0,613660723176011;0,557567238403856;0,493152410609876;0,431529582759171;0,38126717833849;0,344775759512569;0,320433421561121;0,30470352637788;0,295040808472546;0,289281042194245;0,286384390308212;0,285373076579783;0,285728418134279;0,28766840585461;0,29172429794169;0,298065477750899;0,306947318371117;0,317562063270923;0,329195111388005;0,34181013860358;0,355090794198166;0,368657221575005;0,382589082944468;0,396499260934659;0,410111568942786;0,423710208739161;0,436951473875637;0,449694571450077;0,462227941027494;0,474194222426703;0,485242994865847;0,495963465684841;0,506082904679552;0,515403048887791;0,524295799014139;0,532765307282266;0,540554338542014;0,547949585237695;0,554659527548253;0,560657032464721;0,566260950407834;0,571210366157096;0,575422138721636;0,579036200895375;0,582001142673409;0,584323802911412;0,586129337106337;0,587284011997721;0,588175667059812
"5234_2022-07-22_HD";"HD";"5234";"2022-07-22";"WW";6,45673920241254;0,66365276698252;0,696937571938;0,729880732261943;0,762601017448676;0,792623658119245;0,814865474485291;0,833649776719862;0,841578112224489;0,843894557297563;0,846779147287075;0,850132705887599;0,853848665603436;0,858019472383606;0,862998927700598;0,868670828114778;0,874060693307498;0,880434833682232;0,886019481175109;0,891081211778856;0,896404231372811;0,901054325369977;0,904624967396144;0,907887011919958;0,910461416044616;0,912250776444598;0,913785645564854;0,914164765315671;0,914003908065343;0,913655813775889;0,912727782462905;0,910904897250216;0,908858351823472;0,90651521934403;0,903314946075956;0,899104977240181;0,89244705861789;0,879597324619455;0,857257708358795;0,834263854507464;0,814988625401466;0,801460704032846;0,794538637680628;0,791011216143926;0,789366754178151;0,787941342483737;0,786257032220043;0,785638681610729;0,786015145242381;0,787802236034591;0,790395330449085;0,793497750501408;0,796878833998058;0,800112653970576;0,803131805899405;0,805912754094462;0,808089018781171;0,809678380198165;0,810316492964626;0,810176562456045;0,80902315266586;0,806471073486317;0,802052125211436;0,795981719055063;0,788128963684712;0,778061458708667;0,765488771502724;0,750021957561051;0,731937587866718;0,711881675589902;0,690933385103875;0,670505289224079;0,651774214367728;0,634361921396361;0,6161169690324;0,593914573380374;0,56311243362715;0,519584596081424;0,463639963676775;0,40208369150924;0,345761952367216;0,301807835910766;0,27088649072498;0,250607094290598;0,237658465150549;0,229531021593515;0,224745039016434;0,222159277928901;0,221129361835398;0,22117565359364;0,222400350738991;0,225312186937742;0,22989277617274;0,236610242560815;0,244827323847373;0,253938871998682;0,263961547560915;0,274686010743327;0,285815526978434;0,297396857761365;0,309111252632308;0,320716288463759;0,332408941447711;0,343999279997164;0,355265799018301;0,366496074465998;0,377365507547003;0,387580324339228;0,397512160722098;0,406974633917874;0,415805127123604;0,42427618129275;0,432434951001758;0,439949663089509;0,447146056108015;0,453766627255559;0,459727695577346;0,46533161153711;0,470280385208162;0,474618219846529;0,4783647147651;0,481404275690162;0,483806286859584;0,485755243386906;0,487207327267231;0,488531543326641
"5235_2022-07-22_HD";"HD";"5235";"2022-07-22";"WD1";5,40136509088761;0,702425811774446;0,730867626091641;0,758733623994799;0,785773578323062;0,81133074167684;0,831318493833887;0,847578042608206;0,8560007842762;0,85994998925328;0,86287443705708;0,866223471101108;0,870172821890591;0,873506685054474;0,877453292353984;0,881556275693496;0,885516360745018;0,890339028315215;0,894376186606751;0,897723657903834;0,901531867439845;0,905103316330802;0,907446300129827;0,909768213916561;0,911788406056636;0,913032200354215;0,914195489316715;0,914755518754729;0,914747764931522;0,914642788403606;0,914106420012837;0,912912863498394;0,911755399794111;0,910344784412194;0,908143391659364;0,905316271393636;0,900869149717516;0,891714442421032;0,875466027429407;0,859269974562427;0,845557517010107;0,835423801932129;0,829848614058433;0,826879183876334;0,82531573817777;0,823799184073746;0,822195932964403;0,821435837887748;0,821575528819797;0,822955978707476;0,82533292674875;0,828175550181651;0,831154809740479;0,833915714244548;0,836364003448454;0,838540272654179;0,840282543343287;0,841516608165601;0,842130283830829;0,842044054271021;0,841234545510782;0,83946396529293;0,83623126783397;0,831811207912019;0,826057319959532;0,81857830809213;0,809181687823831;0,797487582414123;0,783532760729304;0,767837608143003;0,751197841604157;0,734564520849634;0,719033192093435;0,704294410786924;0,688707828735411;0,669548706761032;0,642588472824436;0,603475108287226;0,55093456394308;0,490156660020296;0,431543891156418;0,383438098917202;0,348216143960556;0,324417272249696;0,30885703462724;0,299055764727589;0,293106534117217;0,289872468301063;0,288480165468028;0,288446831149817;0,289908221253836;0,293347999091392;0,29881728588248;0,306769466850051;0,316292997552156;0,326902920153498;0,338436345290012;0,350523212417553;0,362904562236434;0,375639993590236;0,388332278047928;0,400654757409661;0,412967962470275;0,42492465881827;0,436355317001628;0,447625013782103;0,458425741631897;0,46837920578778;0,478115914250875;0,487295023089049;0,495805169497157;0,503948150121477;0,511758925972234;0,518939775832885;0,525790861519017;0,532044587884899;0,537696753459003;0,542983996771547;0,547677747106594;0,551744756822609;0,555299332059787;0,558271024721027;0,560726724066528;0,562622039857401;0,563778782778542;0,564518739192002
"5236_2022-07-19_HD";"HD";"5236";"2022-07-19";"WD2";3,48584693136382;0,747850384824352;0,77534969079158;0,799299495978379;0,825326550720451;0,84961815709579;0,867993215724076;0,882602118742139;0,89046068444077;0,894923108490952;0,897649576631311;0,901117115128724;0,904272279533845;0,907718978031115;0,911592760734474;0,915308809793142;0,918658839722929;0,922987435509253;0,927077937416165;0,930351093444132;0,933484690915919;0,936236437923771;0,938511448717182;0,940437895336554;0,942442865121338;0,943501516265659;0,944197995924807;0,944560209938595;0,944663868220988;0,944476110670115;0,943903620525143;0,943177005202029;0,941996533487508;0,940435389394109;0,938608459881719;0,936235188507034;0,932279330735097;0,924430934159989;0,910725862877224;0,896247635507838;0,883911394615447;0,875045742022099;0,870293306164209;0,86819214202304;0,867070796217862;0,866091445570927;0,864958808853605;0,864634596732693;0,865083800475387;0,866455386863615;0,868497987541128;0,870916615896456;0,873382718491152;0,875732044572715;0,877812883612233;0,879705336225083;0,881284927841471;0,882327154133621;0,882750660978131;0,88266094160257;0,881852542106451;0,880137807686117;0,877368437705642;0,873420348326175;0,868178582702505;0,861454896500192;0,852870468436203;0,842081778151837;0,829283054621461;0,814988585344526;0,799699965463343;0,784300968558456;0,769863820748553;0,755904877691811;0,741010221650472;0,722533689626021;0,696029375866797;0,65705704674245;0,603769361365022;0,540864685011527;0,478716726385161;0,426619839979009;0,388010088637913;0,361577655568844;0,34442463465529;0,333629907826445;0,327177519714471;0,323862637021443;0,322740626472878;0,322993128560797;0,325091345043311;0,329674356997819;0,336748346033988;0,346427300071693;0,35793076494398;0,370522926030457;0,38401967141871;0,398256164398039;0,412593831030368;0,427256278862599;0,441682593083406;0,455622259523619;0,469400933874455;0,482696642272114;0,495364389835971;0,507722496026703;0,519429212351748;0,53021889583575;0,540571186922648;0,550377315732037;0,559369254923106;0,567927308394408;0,576070560217739;0,583491326759643;0,590642693813898;0,597059233432409;0,602833765797233;0,608229984376724;0,612935531577071;0,616940248167617;0,620399381535429;0,623291754915015;0,625718247669719;0,627547236013621;0,628545405793295;0,628978818067145
"5240_2022-06-07_HD";"HD";"5240";"2022-06-07";"WD1";5,31931187578246;0,681150480988818;0,711069895669386;0,73917758696183;0,771371520825672;0,799917950304343;0,822104630129634;0,840462958372017;0,851300903877658;0,856593950407518;0,859327007328921;0,862424683906585;0,866625992957949;0,870754127299393;0,875627746152838;0,880646626800281;0,885087119345359;0,889868210812869;0,895095665391797;0,899359109992648;0,903535044559568;0,907351215873723;0,910785626254788;0,913558822498026;0,915493799804128;0,916987999827808;0,918475204457865;0,919317765431094;0,919502834054541;0,919028218910671;0,918542976939799;0,917773893771512;0,916484742285801;0,914950854234388;0,912894392369791;0,910035828465689;0,9053760803383;0,895845192772514;0,878298927759201;0,861412769579994;0,847438439465261;0,836737696378281;0,830700581428852;0,827663480594478;0,8260904196981;0,824842611411467;0,823858893605889;0,823473345610838;0,823873932904074;0,825775865373649;0,8282762765441;0,831079784148158;0,834280539447866;0,837233658184876;0,839748760220454;0,842078023374514;0,844010607236764;0,845493179076718;0,846275755317866;0,84617452082576;0,845077377629797;0,843182995697471;0,840137934836921;0,835580629253322;0,829584291502216;0,821795160237459;0,811955624626087;0,799774031367481;0,785388513349478;0,76915780460461;0,751939261172489;0,734841547541583;0,71885726041961;0,703566017451455;0,687326164197143;0,667197590127748;0,63886608151825;0,597801615947798;0,542833180658141;0,479315890672547;0,418227595629899;0,368060992046824;0,33168151665719;0,307154380655202;0,291418733664644;0,281695531695693;0,275959454725589;0,27308801499936;0,271948558803201;0,272142668927277;0,273914530197445;0,277901043997872;0,284116860358527;0,292600278961978;0,302703474943441;0,313859142871023;0,325857204420975;0,338595883649717;0,351734936352349;0,365272351837538;0,378704826542974;0,391979850574095;0,40513577672679;0,418006148852884;0,430370394673267;0,44258076501657;0,454219227830605;0,465083921547395;0,475474393146502;0,485356089855515;0,494476713232604;0,503076732579351;0,511355936359249;0,51903364518821;0,526184918857722;0,532738420573635;0,538584488246647;0,54405561340375;0,548898175570512;0,553119065825335;0,556730262505109;0,559720851587813;0,562020946072311;0,563650327280727;0,564439682356236;0,564798192463509
"5242_2022-06-02_HD";"HD";"5242";"2022-06-02";"WD2";2,98503937710133;0,730722418901786;0,755718409314404;0,776666147674795;0,801990618881155;0,82332321017918;0,840889090310622;0,855491814322551;0,865078720027544;0,868592101336444;0,871798471826091;0,876072235119527;0,879493426496864;0,882455564195962;0,886028309333362;0,889352800836378;0,892602422065804;0,896129839269461;0,899452069504778;0,902689559268979;0,905430107630746;0,907752677105943;0,909716037055617;0,911652652758323;0,913256760780685;0,914548896478821;0,915029775283641;0,915408046009669;0,915517647594436;0,915484152280166;0,915211927335892;0,91452252735406;0,91336861327205;0,91223468171411;0,911015979410191;0,90878327325096;0,905027073301778;0,898257651106548;0,885623755615463;0,873472102550298;0,863804857293899;0,856395311268209;0,852296189640854;0,850610163650445;0,849489993018979;0,848471440776686;0,847560633346488;0,8473365652069;0,847809495188398;0,8491070081921;0,850791664257152;0,852796634988704;0,85516373477452;0,857244003632505;0,859105426038651;0,860741546579326;0,862144223649037;0,863101040595604;0,863357105231107;0,86326528129949;0,862650321762774;0,861224815821992;0,858807482374618;0,855333012520275;0,850828629957361;0,845008745589741;0,837577052731272;0,828271826600623;0,817175536917898;0,80467237318124;0,791295658652997;0,77775781318561;0,764869953751442;0,752362206689745;0,739057443733228;0,72234068209014;0,698226141992802;0,661988899826076;0,611820526387159;0,551344606674601;0,490710129065912;0,439261989432601;0,400633248294425;0,373915533162089;0,356451393581364;0,345364544990033;0,338654920691142;0,335174278129955;0,333907687460634;0,334141479346057;0,336263073992582;0,340932681006017;0,348294818917012;0,358223338823032;0,369971127141387;0,382960095535243;0,396743241089304;0,411157081199218;0,425770012557137;0,440557747693178;0,455183218588223;0,469324070436407;0,483173190622692;0,496688703090356;0,509467731752798;0,521901574994185;0,533619242592685;0,544509896990766;0,55482052950093;0,564534913795614;0,573382880816875;0,581750063991853;0,589688903720935;0,596927328852487;0,603710608046889;0,609862858796318;0,615267532003858;0,620394539241576;0,624904946647235;0,628761098102112;0,63212023990403;0,634999026643311;0,637361960112611;0,639040121151573;0,639999252798632;0,640406438459507
"5243_2022-06-02_HD";"HD";"5243";"2022-06-02";"WD1";4,85245737604623;0,707520429318133;0,738164414402329;0,764586077388702;0,795890057121103;0,823306669404118;0,844624829310892;0,862020238346118;0,87294605083715;0,877417777847727;0,881097031697189;0,884879973407498;0,889531500147058;0,893583923394295;0,898236782812828;0,902314039787559;0,906524837202326;0,9113739959862;0,915841445719382;0,920312464616436;0,924219097706982;0,927331318323586;0,930356040433842;0,932813633905859;0,93500818692273;0,936295941664356;0,937205753824026;0,93780596071003;0,937841030317863;0,937510792985695;0,936886866300937;0,935970275958944;0,934293505359221;0,93238143643194;0,930399334877098;0,9272895188824;0,922150108156648;0,912895946428805;0,896201507910994;0,878824945800464;0,864292704933773;0,853621188705811;0,847677242553407;0,844887053638926;0,843190672151936;0,841587693522468;0,840191334871735;0,839605798345642;0,839933620134683;0,841722271583493;0,844216096749917;0,84708277600421;0,850229849362728;0,853091538656492;0,855627052020078;0,857985108634652;0,859896081481509;0,86124730533418;0,861798502451327;0,861678712986294;0,860764893901171;0,858858879738411;0,855607217725293;0,850917008645533;0,844742322488989;0,836941041701856;0,8269845526341;0,814460715597627;0,799786118713481;0,783481250190287;0,766173661695103;0,748972847596894;0,732762065872253;0,717346893506312;0,701051582994627;0,680903325943361;0,652577018746149;0,61137872277958;0,556281542109286;0,492873901199891;0,432012765095474;0,382414517291203;0,346346451583003;0,322011003481836;0,306434568834615;0,296599318470675;0,290650808026372;0,28755578071436;0,28632032565319;0,286328157510965;0,287987678466534;0,291795308903048;0,297862423756816;0,306109672487681;0,316209840589521;0,327441356190733;0,339510168090245;0,352317339363862;0,365421835929885;0,378980457328273;0,39251621089217;0,405716327467613;0,418866038865411;0,43177499656751;0,444212376625831;0,456398280133758;0,468120633387095;0,478965948982925;0,489399604389331;0,499294229810782;0,508420890508214;0,517100228328;0,525336325974318;0,532986190905275;0,540149129912807;0,546615504365219;0,552396768858525;0,557829279738643;0,562638094010117;0,566794404251104;0,570369920452585;0,573347526346782;0,575778380760084;0,577473161622152;0,578404136857005;0,578765406307364
